track_id,frame,area
1,0,128.0
1,1,126.0
1,2,127.0
1,3,127.0
1,4,130.0
1,5,132.0
1,6,128.0
1,7,131.0
1,8,128.0
1,9,129.0
1,10,129.0
1,11,133.0
1,12,130.0
1,13,130.0
1,14,129.0
1,15,129.0
1,16,133.0
1,17,133.0
1,18,130.0
1,19,132.0
1,20,132.0
1,21,128.0
1,22,130.0
1,23,130.0
1,24,130.0
1,25,130.0
1,26,130.0
1,27,130.0
1,28,130.0
1,29,131.0
1,30,132.0
1,31,135.0
1,32,132.0
1,33,134.0
1,34,133.0
1,35,132.0
1,36,132.0
1,37,136.0
1,38,129.0
1,39,132.0
1,40,128.0
1,41,133.0
1,42,132.0
1,43,136.0
1,44,134.0
1,45,131.0
1,46,133.0
1,47,132.0
1,48,128.0
1,49,132.0
1,50,129.0
1,51,131.0
1,52,131.0
1,53,136.0
1,54,133.0
1,55,133.0
1,56,134.0
1,57,134.0
1,58,132.0
1,59,133.0
1,60,131.0
1,61,129.0
1,62,132.0
1,63,132.0
1,64,133.0
1,65,133.0
1,66,130.0
1,67,131.0
1,68,132.0
1,69,130.0
1,70,131.0
1,71,133.0
1,72,133.0
1,73,133.0
1,74,132.0
1,75,132.0
1,76,133.0
1,77,133.0
1,78,133.0
1,79,134.0
1,80,132.0
2,0,131.0
2,1,137.0
2,2,140.0
2,3,140.0
2,4,139.0
2,5,139.0
2,6,134.0
2,7,140.0
2,8,128.0
2,9,137.0
2,10,126.0
2,11,133.0
2,12,140.0
2,13,143.0
2,14,133.0
2,15,132.0
2,16,130.0
2,17,135.0
2,18,136.0
2,19,135.0
2,20,129.0
2,21,133.0
2,22,131.0
2,23,132.0
2,24,129.0
2,25,131.0
2,26,133.0
2,27,133.0
2,28,136.0
2,29,136.0
2,30,136.0
2,31,138.0
2,32,134.0
2,33,135.0
2,34,140.0
2,35,137.0
2,36,138.0
2,37,141.0
2,38,139.0
2,39,129.0
2,40,135.0
2,41,133.0
2,42,129.0
2,43,125.0
2,44,132.0
2,45,132.0
2,46,136.0
2,47,136.0
2,48,136.0
2,49,135.0
2,50,134.0
2,51,132.0
2,52,132.0
2,53,132.0
2,54,131.0
2,55,137.0
2,56,135.0
2,57,132.0
2,58,137.0
2,59,137.0
2,60,140.0
2,61,142.0
2,62,138.0
2,63,140.0
2,64,141.0
2,65,141.0
2,66,141.0
2,67,142.0
2,68,140.0
2,69,135.0
2,70,136.0
2,71,137.0
2,72,134.0
2,73,136.0
2,74,135.0
2,75,135.0
2,76,137.0
2,77,137.0
2,78,136.0
2,79,135.0
2,80,132.0
3,0,94.0
3,1,94.0
3,2,93.0
3,3,94.0
3,4,98.0
3,5,96.0
3,6,93.0
3,7,93.0
3,8,96.0
3,9,97.0
3,10,98.0
3,11,97.0
3,12,92.0
3,13,93.0
3,14,90.0
3,15,93.0
3,16,93.0
3,17,93.0
3,18,92.0
3,19,93.0
3,20,96.0
3,21,94.0
3,22,94.0
3,23,96.0
3,24,93.0
3,25,95.0
3,26,93.0
3,27,92.0
3,28,92.0
3,29,97.0
3,30,94.0
3,31,98.0
3,32,99.0
3,33,97.0
3,34,94.0
3,35,96.0
3,36,98.0
3,37,94.0
3,38,97.0
3,39,98.0
3,40,92.0
3,41,94.0
3,42,92.0
3,43,92.0
3,44,90.0
3,45,90.0
3,46,91.0
3,47,92.0
3,48,92.0
3,49,93.0
3,50,92.0
3,51,92.0
3,52,94.0
3,53,95.0
3,54,93.0
3,55,91.0
3,56,95.0
3,57,92.0
3,58,94.0
3,59,94.0
3,60,92.0
3,61,92.0
3,62,93.0
3,63,90.0
3,64,96.0
3,65,92.0
3,66,94.0
3,67,96.0
3,68,93.0
3,69,96.0
3,70,95.0
3,71,94.0
3,72,92.0
3,73,91.0
3,74,94.0
3,75,95.0
3,76,94.0
3,77,92.0
3,78,94.0
3,79,97.0
3,80,93.0
4,0,95.0
4,1,99.0
4,2,95.0
4,3,97.0
4,4,98.0
4,5,97.0
4,6,97.0
4,7,98.0
4,8,97.0
4,9,96.0
4,10,97.0
4,11,97.0
4,12,95.0
4,13,98.0
4,14,97.0
4,15,95.0
4,16,96.0
4,17,95.0
4,18,98.0
4,19,98.0
4,20,97.0
4,21,100.0
4,22,101.0
4,23,102.0
4,24,99.0
4,25,101.0
4,26,100.0
4,27,100.0
4,28,99.0
4,29,98.0
4,30,98.0
4,31,99.0
4,32,94.0
4,33,95.0
4,34,99.0
4,35,97.0
4,36,99.0
4,37,97.0
4,38,97.0
4,39,99.0
4,40,100.0
4,41,99.0
4,42,99.0
4,43,100.0
4,44,100.0
4,45,99.0
4,46,98.0
4,47,98.0
4,48,100.0
4,49,102.0
4,50,103.0
4,51,98.0
4,52,102.0
4,53,99.0
4,54,100.0
4,55,99.0
4,56,101.0
4,57,98.0
4,58,99.0
4,59,98.0
4,60,97.0
4,61,98.0
4,62,96.0
4,63,98.0
4,64,97.0
4,65,97.0
4,66,98.0
4,67,99.0
4,68,100.0
4,69,98.0
4,70,95.0
4,71,97.0
4,72,98.0
4,73,98.0
4,74,99.0
4,75,98.0
4,76,100.0
4,77,98.0
4,78,101.0
4,79,101.0
4,80,102.0
5,0,86.0
5,1,87.0
5,2,82.0
5,3,85.0
5,4,85.0
5,5,84.0
5,6,84.0
5,7,82.0
5,8,84.0
5,9,87.0
5,10,82.0
5,11,84.0
5,12,85.0
5,13,86.0
5,14,86.0
5,15,87.0
5,16,81.0
5,17,82.0
5,18,80.0
5,19,79.0
5,20,83.0
5,21,80.0
5,22,83.0
5,23,81.0
5,24,81.0
5,25,86.0
5,26,81.0
5,27,84.0
5,28,84.0
5,29,86.0
5,30,87.0
5,31,86.0
5,32,87.0
5,33,85.0
5,34,86.0
5,35,84.0
5,36,84.0
5,37,84.0
5,38,83.0
5,39,85.0
5,40,83.0
5,41,85.0
5,42,86.0
5,43,82.0
5,44,86.0
5,45,85.0
5,46,82.0
5,47,85.0
5,48,85.0
5,49,86.0
5,50,85.0
5,51,84.0
5,52,81.0
5,53,83.0
5,54,84.0
5,55,85.0
5,56,88.0
5,57,84.0
5,58,81.0
5,59,85.0
5,60,85.0
5,61,83.0
5,62,83.0
5,63,83.0
5,64,89.0
5,65,84.0
5,66,85.0
5,67,85.0
5,68,83.0
5,69,87.0
5,70,87.0
5,71,86.0
5,72,81.0
5,73,86.0
5,74,84.0
5,75,85.0
5,76,83.0
5,77,82.0
5,78,82.0
5,79,85.0
5,80,85.0
6,0,100.0
6,1,100.0
6,2,99.0
6,3,104.0
6,4,100.0
6,5,100.0
6,6,99.0
6,7,100.0
6,8,97.0
6,9,99.0
6,10,97.0
6,11,98.0
6,12,100.0
6,13,98.0
6,14,96.0
6,15,99.0
6,16,97.0
6,17,101.0
6,18,97.0
6,19,100.0
6,20,103.0
6,21,103.0
6,22,105.0
6,23,104.0
6,24,102.0
6,25,103.0
6,26,104.0
6,27,102.0
6,28,103.0
6,29,105.0
6,30,104.0
6,31,103.0
6,32,101.0
6,33,100.0
6,34,102.0
6,35,100.0
6,36,100.0
6,37,100.0
6,38,100.0
6,39,98.0
6,40,100.0
6,41,100.0
6,42,101.0
6,43,104.0
6,44,104.0
6,45,105.0
6,46,103.0
6,47,105.0
6,48,104.0
6,49,104.0
6,50,107.0
6,51,104.0
6,52,104.0
6,53,105.0
6,54,106.0
6,55,103.0
6,56,107.0
6,57,105.0
6,58,103.0
6,59,108.0
6,60,107.0
6,61,104.0
6,62,105.0
6,63,104.0
6,64,100.0
6,65,100.0
6,66,101.0
6,67,101.0
6,68,98.0
6,69,99.0
6,70,101.0
6,71,100.0
6,72,103.0
6,73,101.0
6,74,101.0
6,75,102.0
6,76,103.0
6,77,102.0
6,78,101.0
6,79,104.0
6,80,101.0
7,0,102.0
7,1,98.0
7,2,103.0
7,3,102.0
7,4,104.0
7,5,99.0
7,6,103.0
7,7,102.0
7,8,101.0
7,9,98.0
7,10,98.0
7,11,104.0
7,12,100.0
7,13,99.0
7,14,101.0
7,15,101.0
7,16,100.0
7,17,100.0
7,18,100.0
7,19,101.0
7,20,101.0
7,21,99.0
7,22,102.0
7,23,102.0
7,24,102.0
7,25,102.0
7,26,102.0
7,27,98.0
7,28,96.0
7,29,103.0
7,30,99.0
7,31,100.0
7,32,102.0
7,33,103.0
7,34,100.0
7,35,99.0
7,36,102.0
7,37,101.0
7,38,100.0
7,39,100.0
7,40,100.0
7,41,101.0
7,42,98.0
7,43,99.0
7,44,98.0
7,45,99.0
7,46,100.0
7,47,99.0
7,48,99.0
7,49,99.0
7,50,101.0
7,51,101.0
7,52,102.0
7,53,102.0
7,54,103.0
7,55,103.0
7,56,101.0
7,57,104.0
7,58,101.0
7,59,102.0
7,60,101.0
7,61,101.0
7,62,103.0
7,63,103.0
7,64,104.0
7,65,102.0
7,66,101.0
7,67,100.0
7,68,102.0
7,69,102.0
7,70,101.0
7,71,101.0
7,72,102.0
7,73,99.0
7,74,97.0
7,75,97.0
7,76,99.0
7,77,98.0
7,78,98.0
7,79,100.0
7,80,100.0
8,0,120.0
8,1,115.0
8,2,121.0
8,3,122.0
8,4,122.0
8,5,120.0
8,6,125.0
8,7,123.0
8,8,123.0
8,9,120.0
8,10,125.0
8,11,121.0
8,12,120.0
8,13,120.0
8,14,117.0
8,15,117.0
8,16,116.0
8,17,115.0
8,18,115.0
8,19,116.0
8,20,116.0
8,21,114.0
8,22,119.0
8,23,114.0
8,24,117.0
8,25,116.0
8,26,118.0
8,27,120.0
8,28,119.0
8,29,122.0
8,30,121.0
8,31,121.0
8,32,123.0
8,33,121.0
8,34,124.0
8,35,123.0
8,36,121.0
8,37,120.0
8,38,125.0
8,39,123.0
8,40,124.0
8,41,121.0
8,42,120.0
8,43,122.0
8,44,118.0
8,45,119.0
8,46,119.0
8,47,119.0
8,48,119.0
8,49,120.0
8,50,118.0
8,51,121.0
8,52,120.0
8,53,120.0
8,54,116.0
8,55,115.0
8,56,118.0
8,57,118.0
8,58,119.0
8,59,118.0
8,60,116.0
8,61,118.0
8,62,117.0
8,63,120.0
8,64,122.0
8,65,120.0
8,66,122.0
8,67,120.0
8,68,120.0
8,69,122.0
8,70,118.0
8,71,123.0
8,72,118.0
8,73,121.0
8,74,122.0
8,75,121.0
8,76,118.0
8,77,118.0
8,78,119.0
8,79,121.0
8,80,119.0
9,0,117.0
9,1,113.0
9,2,116.0
9,3,118.0
9,4,117.0
9,5,117.0
9,6,117.0
9,7,116.0
9,8,117.0
9,9,116.0
9,10,115.0
9,11,115.0
9,12,115.0
9,13,112.0
9,14,113.0
9,15,111.0
9,16,113.0
9,17,109.0
9,18,112.0
9,19,119.0
9,20,112.0
9,21,113.0
9,22,114.0
9,23,115.0
9,24,117.0
9,25,116.0
9,26,118.0
9,27,116.0
9,28,118.0
9,29,117.0
9,30,116.0
9,31,117.0
9,32,116.0
9,33,118.0
9,34,117.0
9,35,120.0
9,36,121.0
9,37,119.0
9,38,122.0
9,39,122.0
9,40,121.0
9,41,121.0
9,42,121.0
9,43,119.0
9,44,122.0
9,45,113.0
9,46,110.0
9,47,115.0
9,48,112.0
9,49,107.0
9,50,108.0
9,51,108.0
9,52,107.0
9,53,108.0
9,54,106.0
9,55,106.0
9,56,112.0
9,57,115.0
9,58,109.0
9,59,106.0
9,60,114.0
9,61,111.0
9,62,121.0
9,63,113.0
9,64,120.0
9,65,122.0
9,66,122.0
9,67,122.0
9,68,120.0
9,69,121.0
9,70,121.0
9,71,122.0
9,72,120.0
9,73,120.0
9,74,106.0
9,75,120.0
9,76,119.0
9,77,115.0
9,78,115.0
9,79,108.0
9,80,109.0
10,0,100.0
10,1,101.0
10,2,100.0
10,3,101.0
10,4,98.0
10,5,97.0
10,6,100.0
10,7,101.0
10,8,100.0
10,9,100.0
10,10,100.0
10,11,99.0
10,12,99.0
10,13,99.0
10,14,99.0
10,15,102.0
10,16,102.0
10,17,102.0
10,18,103.0
10,19,99.0
10,20,102.0
10,21,102.0
10,22,100.0
10,23,104.0
10,24,106.0
10,25,103.0
10,26,104.0
10,27,100.0
10,28,105.0
10,29,105.0
10,30,103.0
10,31,104.0
10,32,100.0
10,33,105.0
10,34,102.0
10,35,105.0
10,36,102.0
10,37,101.0
10,38,104.0
10,39,103.0
10,40,102.0
10,41,102.0
10,42,100.0
10,43,99.0
10,44,101.0
10,45,103.0
10,46,103.0
10,47,105.0
10,48,106.0
10,49,101.0
10,50,102.0
10,51,104.0
10,52,103.0
10,53,101.0
10,54,102.0
10,55,103.0
10,56,103.0
10,57,107.0
10,58,106.0
10,59,105.0
10,60,105.0
10,61,104.0
10,62,103.0
10,63,103.0
10,64,103.0
10,65,103.0
10,66,104.0
10,67,105.0
10,68,103.0
10,69,103.0
10,70,105.0
10,71,101.0
10,72,103.0
10,73,103.0
10,74,100.0
10,75,102.0
10,76,101.0
10,77,101.0
10,78,101.0
10,79,102.0
10,80,101.0
11,0,147.0
11,1,151.0
11,2,146.0
11,3,145.0
11,4,146.0
11,5,144.0
11,6,143.0
11,7,146.0
11,8,143.0
11,9,144.0
11,10,136.0
11,11,146.0
11,12,146.0
11,13,146.0
11,14,148.0
11,15,148.0
11,16,143.0
11,17,143.0
11,18,146.0
11,19,145.0
11,20,142.0
11,21,148.0
11,22,144.0
11,23,142.0
11,24,141.0
11,25,147.0
11,26,144.0
11,27,148.0
11,28,145.0
11,29,150.0
11,30,145.0
11,31,146.0
11,32,145.0
11,33,139.0
11,34,146.0
11,35,142.0
11,36,144.0
11,37,147.0
11,38,145.0
11,39,147.0
11,40,142.0
11,41,141.0
11,42,142.0
11,43,143.0
11,44,146.0
11,45,142.0
11,46,143.0
11,47,148.0
11,48,146.0
11,49,141.0
11,50,142.0
11,51,146.0
11,52,148.0
11,53,145.0
11,54,144.0
11,55,142.0
11,56,143.0
11,57,147.0
11,58,141.0
11,59,147.0
11,60,145.0
11,61,146.0
11,62,147.0
11,63,149.0
11,64,145.0
11,65,146.0
11,66,149.0
11,67,145.0
11,68,145.0
11,69,150.0
11,70,141.0
11,71,148.0
11,72,142.0
11,73,141.0
11,74,139.0
11,75,144.0
11,76,145.0
11,77,141.0
11,78,145.0
11,79,143.0
11,80,146.0
12,0,81.0
12,1,81.0
12,2,82.0
12,3,81.0
12,4,83.0
12,5,82.0
12,6,82.0
12,7,80.0
12,8,77.0
12,9,82.0
12,10,81.0
12,11,81.0
12,12,83.0
12,13,79.0
12,14,81.0
12,15,78.0
12,16,81.0
12,17,78.0
12,18,78.0
12,19,79.0
12,20,75.0
12,21,77.0
12,22,76.0
12,23,76.0
12,24,82.0
12,25,83.0
12,26,80.0
12,27,82.0
12,28,84.0
12,29,78.0
12,30,81.0
12,31,82.0
12,32,82.0
12,33,82.0
12,34,80.0
12,35,82.0
12,36,79.0
12,37,78.0
12,38,80.0
12,39,81.0
12,40,79.0
12,41,78.0
12,42,79.0
12,43,81.0
12,44,80.0
12,45,77.0
12,46,78.0
12,47,76.0
12,48,74.0
12,49,74.0
12,50,78.0
12,51,75.0
12,52,75.0
12,53,76.0
12,54,77.0
12,55,78.0
12,56,80.0
12,57,79.0
12,58,80.0
12,59,81.0
12,60,83.0
12,61,80.0
12,62,81.0
12,63,81.0
12,64,83.0
12,65,82.0
12,66,80.0
12,67,82.0
12,68,80.0
12,69,80.0
12,70,81.0
12,71,80.0
12,72,80.0
12,73,77.0
12,74,79.0
12,75,76.0
12,76,79.0
12,77,81.0
12,78,79.0
12,79,77.0
12,80,76.0
13,0,149.0
13,1,152.0
13,2,153.0
13,3,151.0
13,4,152.0
13,5,150.0
13,6,153.0
13,7,151.0
13,8,152.0
13,9,155.0
13,10,153.0
13,11,153.0
13,12,154.0
13,13,151.0
13,14,149.0
13,15,147.0
13,16,150.0
13,17,145.0
13,18,149.0
13,19,146.0
13,20,150.0
13,21,153.0
13,22,153.0
13,23,152.0
13,24,151.0
13,25,154.0
13,26,154.0
13,27,154.0
13,28,148.0
13,29,152.0
13,30,150.0
13,31,150.0
13,32,153.0
13,33,149.0
13,34,150.0
13,35,150.0
13,36,149.0
13,37,152.0
13,38,151.0
13,39,153.0
13,40,151.0
13,41,148.0
13,42,148.0
13,43,146.0
13,44,147.0
13,45,147.0
13,46,151.0
13,47,144.0
13,48,150.0
13,49,151.0
13,50,151.0
13,51,152.0
13,52,151.0
13,53,154.0
13,54,154.0
13,55,150.0
13,56,154.0
13,57,149.0
13,58,150.0
13,59,153.0
13,60,148.0
13,61,150.0
13,62,151.0
13,63,149.0
13,64,149.0
13,65,151.0
13,66,146.0
13,67,147.0
13,68,148.0
13,69,147.0
13,70,149.0
13,71,149.0
13,72,149.0
13,73,147.0
13,74,147.0
13,75,149.0
13,76,145.0
13,77,148.0
13,78,150.0
13,79,149.0
13,80,152.0
14,0,89.0
14,1,89.0
14,2,88.0
14,3,91.0
14,4,90.0
14,5,89.0
14,6,90.0
14,7,89.0
14,8,90.0
14,9,91.0
14,10,91.0
14,11,93.0
14,12,91.0
14,13,95.0
14,14,95.0
14,15,93.0
14,16,95.0
14,17,91.0
14,18,91.0
14,19,93.0
14,20,90.0
14,21,93.0
14,22,93.0
14,23,92.0
14,24,88.0
14,25,89.0
14,26,90.0
14,27,88.0
14,28,88.0
14,29,89.0
14,30,89.0
14,31,92.0
14,32,91.0
14,33,90.0
14,34,91.0
14,35,90.0
14,36,90.0
14,37,91.0
14,38,90.0
14,39,91.0
14,40,91.0
14,41,91.0
14,42,90.0
14,43,90.0
14,44,88.0
14,45,89.0
14,46,90.0
14,47,88.0
14,48,90.0
14,49,90.0
14,50,92.0
14,51,90.0
14,52,90.0
14,53,89.0
14,54,92.0
14,55,89.0
14,56,88.0
14,57,87.0
14,58,88.0
14,59,87.0
14,60,89.0
14,61,87.0
14,62,87.0
14,63,87.0
14,64,90.0
14,65,87.0
14,66,89.0
14,67,89.0
14,68,89.0
14,69,89.0
14,70,91.0
14,71,88.0
14,72,89.0
14,73,90.0
14,74,91.0
14,75,90.0
14,76,92.0
14,77,91.0
14,78,90.0
14,79,92.0
14,80,89.0
15,0,110.0
15,1,108.0
15,2,106.0
15,3,111.0
15,4,110.0
15,5,110.0
15,6,108.0
15,7,108.0
15,8,107.0
15,9,108.0
15,10,107.0
15,11,107.0
15,12,107.0
15,13,107.0
15,14,105.0
15,15,106.0
15,16,108.0
15,17,110.0
15,18,110.0
15,19,110.0
15,20,115.0
15,21,110.0
15,22,112.0
15,23,113.0
15,24,112.0
15,25,111.0
15,26,114.0
15,27,113.0
15,28,114.0
15,29,118.0
15,30,114.0
15,31,115.0
15,32,113.0
15,33,113.0
15,34,118.0
15,35,115.0
15,36,118.0
15,37,115.0
15,38,117.0
15,39,114.0
15,40,115.0
15,41,115.0
15,42,113.0
15,43,116.0
15,44,114.0
15,45,116.0
15,46,118.0
15,47,115.0
15,48,113.0
15,49,114.0
15,50,113.0
15,51,113.0
15,52,112.0
15,53,112.0
15,54,112.0
15,55,115.0
15,56,111.0
15,57,114.0
15,58,112.0
15,59,115.0
15,60,111.0
15,61,116.0
15,62,113.0
15,63,112.0
15,64,111.0
15,65,113.0
15,66,118.0
15,67,113.0
15,68,113.0
15,69,113.0
15,70,114.0
15,71,111.0
15,72,115.0
15,73,113.0
15,74,116.0
15,75,114.0
15,76,114.0
15,77,112.0
15,78,117.0
15,79,116.0
15,80,113.0
16,0,101.0
16,1,103.0
16,2,102.0
16,3,100.0
16,4,99.0
16,5,101.0
16,6,100.0
16,7,96.0
16,8,97.0
16,9,98.0
16,10,97.0
16,11,97.0
16,12,99.0
16,13,99.0
16,14,101.0
16,15,100.0
16,16,101.0
16,17,100.0
16,18,101.0
16,19,100.0
16,20,101.0
16,21,99.0
16,22,98.0
16,23,101.0
16,24,100.0
16,25,96.0
16,26,96.0
16,27,101.0
16,28,101.0
16,29,101.0
16,30,99.0
16,31,99.0
16,32,99.0
16,33,99.0
16,34,101.0
16,35,100.0
16,36,98.0
16,37,97.0
16,38,99.0
16,39,98.0
16,40,96.0
16,41,100.0
16,42,96.0
16,43,98.0
16,44,100.0
16,45,98.0
16,46,96.0
16,47,100.0
16,48,99.0
16,49,99.0
16,50,98.0
16,51,101.0
16,52,98.0
16,53,95.0
16,54,97.0
16,55,101.0
16,56,97.0
16,57,97.0
16,58,100.0
16,59,96.0
16,60,95.0
16,61,96.0
16,62,98.0
16,63,96.0
16,64,100.0
16,65,101.0
16,66,98.0
16,67,99.0
16,68,100.0
16,69,101.0
16,70,98.0
16,71,100.0
16,72,97.0
16,73,95.0
16,74,96.0
16,75,96.0
16,76,93.0
16,77,94.0
16,78,94.0
16,79,98.0
16,80,96.0
17,0,124.0
17,1,124.0
17,2,129.0
17,3,128.0
17,4,130.0
17,5,132.0
17,6,131.0
17,7,131.0
17,8,131.0
17,9,131.0
17,10,132.0
17,11,129.0
17,12,129.0
17,13,133.0
17,14,130.0
17,15,130.0
17,16,129.0
17,17,130.0
17,18,129.0
17,19,121.0
17,20,131.0
17,21,128.0
17,22,132.0
17,23,129.0
17,24,126.0
17,25,127.0
17,26,130.0
17,27,127.0
17,28,132.0
17,29,129.0
17,30,130.0
17,31,128.0
17,32,131.0
17,33,131.0
17,34,132.0
17,35,132.0
17,36,131.0
17,37,130.0
17,38,130.0
17,39,129.0
17,40,131.0
17,41,133.0
17,42,135.0
17,43,128.0
17,44,133.0
17,45,130.0
17,46,127.0
17,47,130.0
17,48,129.0
17,49,127.0
17,50,132.0
17,51,133.0
17,52,130.0
17,53,132.0
17,54,138.0
17,55,129.0
17,56,128.0
17,57,128.0
17,58,131.0
17,59,129.0
17,60,128.0
17,61,131.0
17,62,130.0
17,63,131.0
17,64,130.0
17,65,130.0
17,66,128.0
17,67,135.0
17,68,130.0
17,69,129.0
17,70,132.0
17,71,129.0
17,72,129.0
17,73,130.0
17,74,134.0
17,75,131.0
17,76,132.0
17,77,133.0
17,78,129.0
17,79,132.0
17,80,130.0
18,0,133.0
18,1,132.0
18,2,130.0
18,3,129.0
18,4,131.0
18,5,133.0
18,6,134.0
18,7,131.0
18,8,131.0
18,9,132.0
18,10,132.0
18,11,130.0
18,12,132.0
18,13,132.0
18,14,134.0
18,15,133.0
18,16,133.0
18,17,133.0
18,18,134.0
18,19,134.0
18,20,135.0
18,21,134.0
18,22,132.0
18,23,135.0
18,24,132.0
18,25,135.0
18,26,136.0
18,27,136.0
18,28,131.0
18,29,136.0
18,30,135.0
18,31,132.0
18,32,133.0
18,33,130.0
18,34,132.0
18,35,132.0
18,36,132.0
18,37,131.0
18,38,132.0
18,39,132.0
18,40,135.0
18,41,132.0
18,42,131.0
18,43,134.0
18,44,133.0
18,45,133.0
18,46,135.0
18,47,130.0
18,48,130.0
18,49,134.0
18,50,134.0
18,51,129.0
18,52,133.0
18,53,130.0
18,54,134.0
18,55,135.0
18,56,135.0
18,57,134.0
18,58,135.0
18,59,132.0
18,60,135.0
18,61,136.0
18,62,135.0
18,63,135.0
18,64,136.0
18,65,136.0
18,66,133.0
18,67,135.0
18,68,134.0
18,69,135.0
18,70,135.0
18,71,133.0
18,72,135.0
18,73,136.0
18,74,131.0
18,75,134.0
18,76,132.0
18,77,133.0
18,78,133.0
18,79,131.0
18,80,129.0
19,0,74.0
19,1,72.0
19,2,73.0
19,3,74.0
19,4,73.0
19,5,72.0
19,6,67.0
19,7,69.0
19,8,67.0
19,9,70.0
19,10,71.0
19,11,70.0
19,12,69.0
19,13,72.0
19,14,72.0
19,15,72.0
19,16,72.0
19,17,72.0
19,18,73.0
19,19,73.0
19,20,75.0
19,21,71.0
19,22,74.0
19,23,72.0
19,24,73.0
19,25,73.0
19,26,71.0
19,27,72.0
19,28,71.0
19,29,70.0
19,30,71.0
19,31,72.0
19,32,71.0
19,33,70.0
19,34,69.0
19,35,72.0
19,36,70.0
19,37,72.0
19,38,68.0
19,39,71.0
19,40,71.0
19,41,72.0
19,42,72.0
19,43,71.0
19,44,73.0
19,45,66.0
19,46,71.0
19,47,71.0
19,48,69.0
19,49,72.0
19,50,70.0
19,51,67.0
19,52,67.0
19,53,69.0
19,54,73.0
19,55,70.0
19,56,70.0
19,57,72.0
19,58,75.0
19,59,72.0
19,60,71.0
19,61,75.0
19,62,71.0
19,63,71.0
19,64,71.0
19,65,71.0
19,66,73.0
19,67,71.0
19,68,74.0
19,69,73.0
19,70,74.0
19,71,73.0
19,72,71.0
19,73,71.0
19,74,74.0
19,75,72.0
19,76,71.0
19,77,71.0
19,78,70.0
19,79,72.0
19,80,71.0
20,0,102.0
20,1,99.0
20,2,97.0
20,3,99.0
20,4,101.0
20,5,100.0
20,6,99.0
20,7,99.0
20,8,96.0
20,9,96.0
20,10,98.0
20,11,99.0
20,12,97.0
20,13,99.0
20,14,98.0
20,15,96.0
20,16,100.0
20,17,98.0
20,18,102.0
20,19,100.0
20,20,100.0
20,21,103.0
20,22,103.0
20,23,103.0
20,24,101.0
20,25,103.0
20,26,103.0
20,27,101.0
20,28,102.0
20,29,99.0
20,30,99.0
20,31,100.0
20,32,97.0
20,33,100.0
20,34,100.0
20,35,98.0
20,36,99.0
20,37,97.0
20,38,99.0
20,39,100.0
20,40,100.0
20,41,101.0
20,42,101.0
20,43,103.0
20,44,101.0
20,45,102.0
20,46,101.0
20,47,101.0
20,48,103.0
20,49,102.0
20,50,103.0
20,51,101.0
20,52,103.0
20,53,101.0
20,54,102.0
20,55,104.0
20,56,102.0
20,57,100.0
20,58,99.0
20,59,100.0
20,60,100.0
20,61,100.0
20,62,100.0
20,63,102.0
20,64,102.0
20,65,100.0
20,66,101.0
20,67,102.0
20,68,102.0
20,69,97.0
20,70,94.0
20,71,99.0
20,72,100.0
20,73,100.0
20,74,101.0
20,75,101.0
20,76,102.0
20,77,100.0
20,78,101.0
20,79,100.0
20,80,103.0
21,0,128.0
21,1,129.0
21,2,132.0
21,3,132.0
21,4,128.0
21,5,129.0
21,6,135.0
21,7,136.0
21,8,135.0
21,9,135.0
21,10,133.0
21,11,134.0
21,12,133.0
21,13,135.0
21,14,129.0
21,15,131.0
21,16,133.0
21,17,132.0
21,18,136.0
21,19,131.0
21,20,130.0
21,21,132.0
21,22,133.0
21,23,135.0
21,24,130.0
21,25,132.0
21,26,133.0
21,27,129.0
21,28,129.0
21,29,130.0
21,30,129.0
21,31,129.0
21,32,127.0
21,33,133.0
21,34,135.0
21,35,135.0
21,36,134.0
21,37,134.0
21,38,134.0
21,39,133.0
21,40,137.0
21,41,133.0
21,42,133.0
21,43,131.0
21,44,129.0
21,45,132.0
21,46,131.0
21,47,133.0
21,48,132.0
21,49,133.0
21,50,132.0
21,51,130.0
21,52,132.0
21,53,130.0
21,54,133.0
21,55,129.0
21,56,132.0
21,57,132.0
21,58,132.0
21,59,135.0
21,60,131.0
21,61,132.0
21,62,133.0
21,63,131.0
21,64,131.0
21,65,132.0
21,66,133.0
21,67,131.0
21,68,135.0
21,69,138.0
21,70,129.0
21,71,134.0
21,72,135.0
21,73,133.0
21,74,134.0
21,75,130.0
21,76,134.0
21,77,135.0
21,78,134.0
21,79,132.0
21,80,134.0
22,0,122.0
22,1,123.0
22,2,125.0
22,3,125.0
22,4,130.0
22,5,124.0
22,6,128.0
22,7,124.0
22,8,127.0
22,9,127.0
22,10,126.0
22,11,126.0
22,12,128.0
22,13,124.0
22,14,127.0
22,15,128.0
22,16,129.0
22,17,123.0
22,18,126.0
22,19,125.0
22,20,127.0
22,21,127.0
22,22,127.0
22,23,126.0
22,24,125.0
22,25,130.0
22,26,127.0
22,27,128.0
22,28,125.0
22,29,127.0
22,30,126.0
22,31,127.0
22,32,127.0
22,33,126.0
22,34,127.0
22,35,127.0
22,36,128.0
22,37,127.0
22,38,126.0
22,39,128.0
22,40,127.0
22,41,128.0
22,42,130.0
22,43,131.0
22,44,129.0
22,45,129.0
22,46,125.0
22,47,125.0
22,48,129.0
22,49,127.0
22,50,127.0
22,51,127.0
22,52,127.0
22,53,130.0
22,54,129.0
22,55,130.0
22,56,128.0
22,57,127.0
22,58,127.0
22,59,127.0
22,60,124.0
22,61,124.0
22,62,127.0
22,63,126.0
22,64,127.0
22,65,124.0
22,66,129.0
22,67,127.0
22,68,125.0
22,69,126.0
22,70,128.0
22,71,126.0
22,72,124.0
22,73,125.0
22,74,123.0
22,75,128.0
22,76,128.0
22,77,127.0
22,78,126.0
22,79,128.0
22,80,127.0
23,0,104.0
23,1,104.0
23,2,104.0
23,3,105.0
23,4,106.0
23,5,105.0
23,6,105.0
23,7,104.0
23,8,103.0
23,9,107.0
23,10,104.0
23,11,101.0
23,12,102.0
23,13,105.0
23,14,103.0
23,15,109.0
23,16,105.0
23,17,96.0
23,18,104.0
23,19,103.0
23,20,100.0
23,21,107.0
23,22,105.0
23,23,105.0
23,24,105.0
23,25,105.0
23,26,107.0
23,27,105.0
23,28,103.0
23,29,106.0
23,30,105.0
23,31,106.0
23,32,107.0
23,33,107.0
23,34,106.0
23,35,107.0
23,36,102.0
23,37,106.0
23,38,106.0
23,39,107.0
23,40,103.0
23,41,103.0
23,42,106.0
23,43,107.0
23,44,106.0
23,45,111.0
23,46,102.0
23,47,110.0
23,48,106.0
23,49,107.0
23,50,100.0
23,51,99.0
23,52,100.0
23,53,105.0
23,54,106.0
23,55,103.0
23,56,105.0
23,57,107.0
23,58,101.0
23,59,106.0
23,60,106.0
23,61,107.0
23,62,108.0
23,63,106.0
23,64,108.0
23,65,106.0
23,66,102.0
23,67,107.0
23,68,107.0
23,69,106.0
23,70,106.0
23,71,106.0
23,72,107.0
23,73,108.0
23,74,108.0
23,75,106.0
23,76,107.0
23,77,105.0
23,78,106.0
23,79,104.0
23,80,104.0
24,0,87.0
24,1,88.0
24,2,87.0
24,3,89.0
24,4,91.0
24,5,85.0
24,6,88.0
24,7,89.0
24,8,89.0
24,9,88.0
24,10,87.0
24,11,90.0
24,12,91.0
24,13,90.0
24,14,93.0
24,15,91.0
24,16,90.0
24,17,90.0
24,18,90.0
24,19,87.0
24,20,88.0
24,21,89.0
24,22,89.0
24,23,88.0
24,24,88.0
24,25,85.0
24,26,85.0
24,27,86.0
24,28,87.0
24,29,87.0
24,30,87.0
24,31,87.0
24,32,91.0
24,33,86.0
24,34,90.0
24,35,90.0
24,36,87.0
24,37,88.0
24,38,88.0
24,39,89.0
24,40,88.0
24,41,88.0
24,42,88.0
24,43,89.0
24,44,90.0
24,45,91.0
24,46,88.0
24,47,87.0
24,48,86.0
24,49,88.0
24,50,89.0
24,51,88.0
24,52,87.0
24,53,87.0
24,54,86.0
24,55,88.0
24,56,88.0
24,57,88.0
24,58,89.0
24,59,88.0
24,60,89.0
24,61,89.0
24,62,89.0
24,63,88.0
24,64,92.0
24,65,88.0
24,66,88.0
24,67,87.0
24,68,89.0
24,69,86.0
24,70,88.0
24,71,91.0
24,72,89.0
24,73,96.0
24,74,91.0
24,75,88.0
24,76,87.0
24,77,84.0
24,78,87.0
24,79,88.0
24,80,88.0
25,0,158.0
25,1,156.0
25,2,158.0
25,3,155.0
25,4,153.0
25,5,155.0
25,6,150.0
25,7,159.0
25,8,153.0
25,9,151.0
25,10,155.0
25,11,157.0
25,12,156.0
25,13,161.0
25,14,159.0
25,15,157.0
25,16,162.0
25,17,164.0
25,18,158.0
25,19,156.0
25,20,161.0
25,21,162.0
25,22,162.0
25,23,161.0
25,24,162.0
25,25,162.0
25,26,161.0
25,27,158.0
25,28,164.0
25,29,160.0
25,30,160.0
25,31,159.0
25,32,161.0
25,33,149.0
25,34,150.0
25,35,159.0
25,36,155.0
25,37,160.0
25,38,156.0
25,39,157.0
25,40,154.0
25,41,159.0
25,42,159.0
25,43,164.0
25,44,162.0
25,45,164.0
25,46,162.0
25,47,161.0
25,48,162.0
25,49,162.0
25,50,162.0
25,51,160.0
25,52,162.0
25,53,160.0
25,54,156.0
25,55,162.0
25,56,161.0
25,57,161.0
25,58,160.0
25,59,163.0
25,60,157.0
25,61,160.0
25,62,159.0
25,63,158.0
25,64,156.0
25,65,161.0
25,66,157.0
25,67,156.0
25,68,159.0
25,69,160.0
25,70,164.0
25,71,154.0
25,72,162.0
25,73,156.0
25,74,162.0
25,75,159.0
25,76,158.0
25,77,164.0
25,78,165.0
25,79,160.0
25,80,160.0
26,0,156.0
26,1,153.0
26,2,158.0
26,3,152.0
26,4,153.0
26,5,155.0
26,6,157.0
26,7,153.0
26,8,161.0
26,9,158.0
26,10,157.0
26,11,158.0
26,12,155.0
26,13,160.0
26,14,156.0
26,15,156.0
26,16,157.0
26,17,156.0
26,18,157.0
26,19,152.0
26,20,157.0
26,21,154.0
26,22,151.0
26,23,154.0
26,24,153.0
26,25,156.0
26,26,155.0
26,27,157.0
26,28,160.0
26,29,159.0
26,30,154.0
26,31,155.0
26,32,157.0
26,33,155.0
26,34,156.0
26,35,156.0
26,36,162.0
26,37,159.0
26,38,157.0
26,39,161.0
26,40,161.0
26,41,158.0
26,42,164.0
26,43,157.0
26,44,157.0
26,45,152.0
26,46,155.0
26,47,155.0
26,48,156.0
26,49,156.0
26,50,151.0
26,51,157.0
26,52,161.0
26,53,160.0
26,54,163.0
26,55,160.0
26,56,158.0
26,57,160.0
26,58,160.0
26,59,160.0
26,60,158.0
26,61,161.0
26,62,160.0
26,63,159.0
26,64,161.0
26,65,161.0
26,66,160.0
26,67,161.0
26,68,161.0
26,69,163.0
26,70,162.0
26,71,162.0
26,72,163.0
26,73,165.0
26,74,162.0
26,75,160.0
26,76,162.0
26,77,163.0
26,78,160.0
26,79,161.0
26,80,158.0
27,0,103.0
27,1,102.0
27,2,103.0
27,3,100.0
27,4,102.0
27,5,104.0
27,6,104.0
27,7,106.0
27,8,105.0
27,9,102.0
27,10,107.0
27,11,104.0
27,12,107.0
27,13,104.0
27,14,108.0
27,15,108.0
27,16,108.0
27,17,109.0
27,18,109.0
27,19,108.0
27,20,108.0
27,21,103.0
27,22,101.0
27,23,102.0
27,24,102.0
27,25,103.0
27,26,104.0
27,27,105.0
27,28,104.0
27,29,103.0
27,30,105.0
27,31,105.0
27,32,107.0
27,33,107.0
27,34,109.0
27,35,106.0
27,36,107.0
27,37,108.0
27,38,108.0
27,39,110.0
27,40,111.0
27,41,107.0
27,42,105.0
27,43,110.0
27,44,109.0
27,45,110.0
27,46,107.0
27,47,109.0
27,48,106.0
27,49,108.0
27,50,108.0
27,51,108.0
27,52,110.0
27,53,108.0
27,54,109.0
27,55,106.0
27,56,107.0
27,57,101.0
27,58,104.0
27,59,103.0
27,60,105.0
27,61,103.0
27,62,103.0
27,63,106.0
27,64,104.0
27,65,105.0
27,66,107.0
27,67,106.0
27,68,106.0
27,69,106.0
27,70,105.0
27,71,104.0
27,72,104.0
27,73,104.0
27,74,105.0
27,75,106.0
27,76,105.0
27,77,106.0
27,78,107.0
27,79,106.0
27,80,106.0
28,0,160.0
28,1,164.0
28,2,162.0
28,3,159.0
28,4,158.0
28,5,159.0
28,6,160.0
28,7,158.0
28,8,160.0
28,9,162.0
28,10,158.0
28,11,159.0
28,12,158.0
28,13,158.0
28,14,160.0
28,15,157.0
28,16,160.0
28,17,156.0
28,18,156.0
28,19,160.0
28,20,159.0
28,21,161.0
28,22,159.0
28,23,163.0
28,24,160.0
28,25,155.0
28,26,161.0
28,27,162.0
28,28,163.0
28,29,160.0
28,30,163.0
28,31,165.0
28,32,162.0
28,33,162.0
28,34,159.0
28,35,161.0
28,36,164.0
28,37,163.0
28,38,158.0
28,39,163.0
28,40,160.0
28,41,163.0
28,42,161.0
28,43,166.0
28,44,162.0
28,45,167.0
28,46,163.0
28,47,160.0
28,48,161.0
28,49,164.0
28,50,162.0
28,51,165.0
28,52,160.0
28,53,155.0
28,54,160.0
28,55,156.0
28,56,160.0
28,57,158.0
28,58,158.0
28,59,162.0
28,60,165.0
28,61,162.0
28,62,161.0
28,63,160.0
28,64,162.0
28,65,161.0
28,66,162.0
28,67,162.0
28,68,163.0
28,69,169.0
28,70,165.0
28,71,163.0
28,72,161.0
28,73,163.0
28,74,170.0
28,75,171.0
28,76,162.0
28,77,164.0
28,78,164.0
28,79,167.0
28,80,168.0
29,0,121.0
29,1,121.0
29,2,121.0
29,3,125.0
29,4,124.0
29,5,123.0
29,6,127.0
29,7,125.0
29,8,126.0
29,9,125.0
29,10,124.0
29,11,127.0
29,12,123.0
29,13,125.0
29,14,124.0
29,15,121.0
29,16,124.0
29,17,123.0
29,18,127.0
29,19,119.0
29,20,128.0
29,21,125.0
29,22,125.0
29,23,123.0
29,24,123.0
29,25,126.0
29,26,124.0
29,27,124.0
29,28,124.0
29,29,125.0
29,30,124.0
29,31,127.0
29,32,124.0
29,33,124.0
29,34,125.0
29,35,126.0
29,36,127.0
29,37,123.0
29,38,123.0
29,39,125.0
29,40,123.0
29,41,128.0
29,42,126.0
29,43,124.0
29,44,125.0
29,45,122.0
29,46,125.0
29,47,123.0
29,48,122.0
29,49,124.0
29,50,122.0
29,51,126.0
29,52,122.0
29,53,125.0
29,54,132.0
29,55,125.0
29,56,125.0
29,57,123.0
29,58,124.0
29,59,127.0
29,60,126.0
29,61,123.0
29,62,126.0
29,63,125.0
29,64,127.0
29,65,128.0
29,66,126.0
29,67,123.0
29,68,126.0
29,69,125.0
29,70,127.0
29,71,124.0
29,72,126.0
29,73,127.0
29,74,130.0
29,75,126.0
29,76,129.0
29,77,127.0
29,78,123.0
29,79,124.0
29,80,126.0
30,0,151.0
30,1,150.0
30,2,150.0
30,3,154.0
30,4,151.0
30,5,151.0
30,6,149.0
30,7,148.0
30,8,148.0
30,9,149.0
30,10,153.0
30,11,151.0
30,12,153.0
30,13,152.0
30,14,152.0
30,15,152.0
30,16,152.0
30,17,150.0
30,18,151.0
30,19,153.0
30,20,152.0
30,21,148.0
30,22,150.0
30,23,155.0
30,24,153.0
30,25,153.0
30,26,147.0
30,27,150.0
30,28,148.0
30,29,154.0
30,30,153.0
30,31,149.0
30,32,152.0
30,33,154.0
30,34,151.0
30,35,152.0
30,36,153.0
30,37,152.0
30,38,152.0
30,39,151.0
30,40,149.0
30,41,150.0
30,42,149.0
30,43,152.0
30,44,152.0
30,45,150.0
30,46,151.0
30,47,152.0
30,48,150.0
30,49,153.0
30,50,154.0
30,51,153.0
30,52,151.0
30,53,153.0
30,54,153.0
30,55,153.0
30,56,156.0
30,57,155.0
30,58,151.0
30,59,153.0
30,60,151.0
30,61,147.0
30,62,147.0
30,63,147.0
30,64,148.0
30,65,150.0
30,66,147.0
30,67,149.0
30,68,150.0
30,69,149.0
30,70,147.0
30,71,150.0
30,72,149.0
30,73,149.0
30,74,151.0
30,75,148.0
30,76,150.0
30,77,152.0
30,78,154.0
30,79,153.0
30,80,152.0
31,0,99.0
31,1,99.0
31,2,101.0
31,3,98.0
31,4,99.0
31,5,100.0
31,6,99.0
31,7,99.0
31,8,100.0
31,9,98.0
31,10,100.0
31,11,102.0
31,12,101.0
31,13,98.0
31,14,99.0
31,15,95.0
31,16,96.0
31,17,96.0
31,18,98.0
31,19,101.0
31,20,97.0
31,21,97.0
31,22,98.0
31,23,98.0
31,24,98.0
31,25,98.0
31,26,98.0
31,27,100.0
31,28,98.0
31,29,99.0
31,30,101.0
31,31,99.0
31,32,98.0
31,33,101.0
31,34,97.0
31,35,99.0
31,36,99.0
31,37,101.0
31,38,100.0
31,39,99.0
31,40,100.0
31,41,100.0
31,42,101.0
31,43,101.0
31,44,100.0
31,45,98.0
31,46,100.0
31,47,98.0
31,48,100.0
31,49,100.0
31,50,99.0
31,51,97.0
31,52,95.0
31,53,98.0
31,54,98.0
31,55,99.0
31,56,96.0
31,57,95.0
31,58,96.0
31,59,100.0
31,60,98.0
31,61,98.0
31,62,99.0
31,63,98.0
31,64,98.0
31,65,99.0
31,66,102.0
31,67,98.0
31,68,99.0
31,69,98.0
31,70,99.0
31,71,99.0
31,72,99.0
31,73,99.0
31,74,100.0
31,75,98.0
31,76,97.0
31,77,100.0
31,78,98.0
31,79,95.0
31,80,99.0
32,0,103.0
32,1,102.0
32,2,101.0
32,3,105.0
32,4,107.0
32,5,104.0
32,6,104.0
32,7,107.0
32,8,107.0
32,9,105.0
32,10,105.0
32,11,106.0
32,12,107.0
32,13,106.0
32,14,108.0
32,15,107.0
32,16,107.0
32,17,108.0
32,18,104.0
32,19,101.0
32,20,103.0
32,21,102.0
32,22,104.0
32,23,104.0
32,24,104.0
32,25,106.0
32,26,107.0
32,27,104.0
32,28,107.0
32,29,104.0
32,30,106.0
32,31,106.0
32,32,102.0
32,33,105.0
32,34,106.0
32,35,105.0
32,36,109.0
32,37,106.0
32,38,106.0
32,39,104.0
32,40,104.0
32,41,106.0
32,42,107.0
32,43,105.0
32,44,107.0
32,45,107.0
32,46,104.0
32,47,106.0
32,48,103.0
32,49,103.0
32,50,105.0
32,51,105.0
32,52,103.0
32,53,105.0
32,54,104.0
32,55,104.0
32,56,105.0
32,57,106.0
32,58,104.0
32,59,105.0
32,60,104.0
32,61,104.0
32,62,104.0
32,63,107.0
32,64,105.0
32,65,105.0
32,66,104.0
32,67,106.0
32,68,110.0
32,69,106.0
32,70,107.0
32,71,105.0
32,72,106.0
32,73,103.0
32,74,102.0
32,75,104.0
32,76,103.0
32,77,104.0
32,78,108.0
32,79,103.0
32,80,102.0
33,0,94.0
33,1,95.0
33,2,94.0
33,3,95.0
33,4,96.0
33,5,97.0
33,6,98.0
33,7,98.0
33,8,97.0
33,9,99.0
33,10,100.0
33,11,98.0
33,12,97.0
33,13,97.0
33,14,99.0
33,15,98.0
33,16,99.0
33,17,99.0
33,18,98.0
33,19,100.0
33,20,101.0
33,21,100.0
33,22,101.0
33,23,99.0
33,24,98.0
33,25,99.0
33,26,96.0
33,27,101.0
33,28,99.0
33,29,96.0
33,30,98.0
33,31,98.0
33,32,99.0
33,33,98.0
33,34,99.0
33,35,99.0
33,36,99.0
33,37,101.0
33,38,102.0
33,39,99.0
33,40,100.0
33,41,100.0
33,42,101.0
33,43,100.0
33,44,97.0
33,45,100.0
33,46,100.0
33,47,100.0
33,48,100.0
33,49,102.0
33,50,98.0
33,51,101.0
33,52,99.0
33,53,100.0
33,54,98.0
33,55,98.0
33,56,101.0
33,57,101.0
33,58,101.0
33,59,97.0
33,60,96.0
33,61,95.0
33,62,98.0
33,63,94.0
33,64,96.0
33,65,99.0
33,66,98.0
33,67,97.0
33,68,100.0
33,69,98.0
33,70,99.0
33,71,99.0
33,72,98.0
33,73,99.0
33,74,98.0
33,75,98.0
33,76,97.0
33,77,97.0
33,78,99.0
33,79,97.0
33,80,95.0
34,0,103.0
34,1,102.0
34,2,103.0
34,3,101.0
34,4,102.0
34,5,103.0
34,6,104.0
34,7,106.0
34,8,103.0
34,9,102.0
34,10,106.0
34,11,104.0
34,12,108.0
34,13,105.0
34,14,108.0
34,15,107.0
34,16,107.0
34,17,109.0
34,18,109.0
34,19,107.0
34,20,107.0
34,21,101.0
34,22,101.0
34,23,100.0
34,24,101.0
34,25,103.0
34,26,105.0
34,27,103.0
34,28,104.0
34,29,103.0
34,30,104.0
34,31,105.0
34,32,106.0
34,33,106.0
34,34,109.0
34,35,105.0
34,36,107.0
34,37,109.0
34,38,108.0
34,39,110.0
34,40,109.0
34,41,103.0
34,42,106.0
34,43,110.0
34,44,107.0
34,45,107.0
34,46,107.0
34,47,105.0
34,48,105.0
34,49,105.0
34,50,107.0
34,51,104.0
34,52,106.0
34,53,104.0
34,54,106.0
34,55,108.0
34,56,105.0
34,57,99.0
34,58,101.0
34,59,99.0
34,60,100.0
34,61,100.0
34,62,100.0
34,63,100.0
34,64,102.0
34,65,101.0
34,66,101.0
34,67,105.0
34,68,103.0
34,69,103.0
34,70,101.0
34,71,102.0
34,72,103.0
34,73,103.0
34,74,102.0
34,75,102.0
34,76,103.0
34,77,101.0
34,78,103.0
34,79,103.0
34,80,104.0
35,0,151.0
35,1,153.0
35,2,155.0
35,3,155.0
35,4,156.0
35,5,152.0
35,6,153.0
35,7,152.0
35,8,150.0
35,9,149.0
35,10,154.0
35,11,155.0
35,12,155.0
35,13,155.0
35,14,156.0
35,15,153.0
35,16,154.0
35,17,153.0
35,18,155.0
35,19,153.0
35,20,155.0
35,21,151.0
35,22,157.0
35,23,157.0
35,24,156.0
35,25,156.0
35,26,151.0
35,27,153.0
35,28,152.0
35,29,156.0
35,30,153.0
35,31,156.0
35,32,153.0
35,33,158.0
35,34,153.0
35,35,153.0
35,36,154.0
35,37,155.0
35,38,153.0
35,39,152.0
35,40,151.0
35,41,152.0
35,42,152.0
35,43,156.0
35,44,156.0
35,45,156.0
35,46,157.0
35,47,154.0
35,48,156.0
35,49,152.0
35,50,156.0
35,51,158.0
35,52,155.0
35,53,155.0
35,54,156.0
35,55,154.0
35,56,156.0
35,57,157.0
35,58,156.0
35,59,154.0
35,60,155.0
35,61,151.0
35,62,151.0
35,63,154.0
35,64,150.0
35,65,152.0
35,66,155.0
35,67,152.0
35,68,153.0
35,69,153.0
35,70,151.0
35,71,155.0
35,72,153.0
35,73,151.0
35,74,152.0
35,75,157.0
35,76,154.0
35,77,153.0
35,78,157.0
35,79,157.0
35,80,157.0
36,0,108.0
36,1,108.0
36,2,112.0
36,3,108.0
36,4,113.0
36,5,115.0
36,6,111.0
36,7,112.0
36,8,114.0
36,9,115.0
36,10,116.0
36,11,115.0
36,12,113.0
36,13,113.0
36,14,113.0
36,15,112.0
36,16,112.0
36,17,110.0
36,18,112.0
36,19,117.0
36,20,114.0
36,21,111.0
36,22,111.0
36,23,109.0
36,24,112.0
36,25,111.0
36,26,117.0
36,27,112.0
36,28,112.0
36,29,112.0
36,30,112.0
36,31,112.0
36,32,115.0
36,33,113.0
36,34,111.0
36,35,117.0
36,36,112.0
36,37,115.0
36,38,116.0
36,39,116.0
36,40,113.0
36,41,116.0
36,42,114.0
36,43,115.0
36,44,111.0
36,45,112.0
36,46,116.0
36,47,111.0
36,48,115.0
36,49,116.0
36,50,115.0
36,51,113.0
36,52,115.0
36,53,120.0
36,54,113.0
36,55,112.0
36,56,116.0
36,57,113.0
36,58,114.0
36,59,113.0
36,60,114.0
36,61,110.0
36,62,115.0
36,63,117.0
36,64,114.0
36,65,115.0
36,66,114.0
36,67,115.0
36,68,115.0
36,69,113.0
36,70,113.0
36,71,115.0
36,72,115.0
36,73,115.0
36,74,116.0
36,75,116.0
36,76,115.0
36,77,116.0
36,78,117.0
36,79,113.0
36,80,115.0
37,0,129.0
37,1,131.0
37,2,135.0
37,3,132.0
37,4,129.0
37,5,130.0
37,6,135.0
37,7,136.0
37,8,132.0
37,9,135.0
37,10,134.0
37,11,133.0
37,12,133.0
37,13,134.0
37,14,129.0
37,15,132.0
37,16,131.0
37,17,131.0
37,18,133.0
37,19,129.0
37,20,130.0
37,21,131.0
37,22,133.0
37,23,134.0
37,24,130.0
37,25,131.0
37,26,132.0
37,27,129.0
37,28,129.0
37,29,128.0
37,30,131.0
37,31,130.0
37,32,127.0
37,33,133.0
37,34,135.0
37,35,133.0
37,36,134.0
37,37,135.0
37,38,134.0
37,39,133.0
37,40,137.0
37,41,132.0
37,42,130.0
37,43,131.0
37,44,130.0
37,45,131.0
37,46,131.0
37,47,133.0
37,48,131.0
37,49,133.0
37,50,132.0
37,51,130.0
37,52,131.0
37,53,129.0
37,54,131.0
37,55,130.0
37,56,131.0
37,57,131.0
37,58,132.0
37,59,133.0
37,60,130.0
37,61,131.0
37,62,132.0
37,63,129.0
37,64,131.0
37,65,132.0
37,66,132.0
37,67,129.0
37,68,134.0
37,69,137.0
37,70,129.0
37,71,134.0
37,72,135.0
37,73,133.0
37,74,132.0
37,75,130.0
37,76,133.0
37,77,134.0
37,78,131.0
37,79,132.0
37,80,135.0
38,0,122.0
38,1,124.0
38,2,125.0
38,3,127.0
38,4,131.0
38,5,124.0
38,6,130.0
38,7,125.0
38,8,127.0
38,9,128.0
38,10,126.0
38,11,126.0
38,12,128.0
38,13,123.0
38,14,126.0
38,15,128.0
38,16,130.0
38,17,123.0
38,18,126.0
38,19,126.0
38,20,129.0
38,21,127.0
38,22,128.0
38,23,125.0
38,24,126.0
38,25,129.0
38,26,127.0
38,27,127.0
38,28,127.0
38,29,127.0
38,30,128.0
38,31,127.0
38,32,128.0
38,33,126.0
38,34,131.0
38,35,127.0
38,36,128.0
38,37,126.0
38,38,126.0
38,39,128.0
38,40,127.0
38,41,129.0
38,42,132.0
38,43,132.0
38,44,130.0
38,45,131.0
38,46,126.0
38,47,128.0
38,48,128.0
38,49,128.0
38,50,128.0
38,51,128.0
38,52,128.0
38,53,131.0
38,54,130.0
38,55,130.0
38,56,131.0
38,57,129.0
38,58,129.0
38,59,128.0
38,60,125.0
38,61,124.0
38,62,127.0
38,63,126.0
38,64,126.0
38,65,126.0
38,66,129.0
38,67,129.0
38,68,125.0
38,69,128.0
38,70,128.0
38,71,129.0
38,72,128.0
38,73,127.0
38,74,127.0
38,75,132.0
38,76,129.0
38,77,127.0
38,78,129.0
38,79,131.0
38,80,126.0
39,0,121.0
39,1,115.0
39,2,121.0
39,3,122.0
39,4,121.0
39,5,120.0
39,6,123.0
39,7,123.0
39,8,123.0
39,9,120.0
39,10,125.0
39,11,121.0
39,12,121.0
39,13,118.0
39,14,118.0
39,15,117.0
39,16,118.0
39,17,115.0
39,18,116.0
39,19,117.0
39,20,116.0
39,21,113.0
39,22,120.0
39,23,115.0
39,24,116.0
39,25,116.0
39,26,117.0
39,27,121.0
39,28,119.0
39,29,124.0
39,30,122.0
39,31,121.0
39,32,123.0
39,33,121.0
39,34,123.0
39,35,122.0
39,36,121.0
39,37,120.0
39,38,121.0
39,39,121.0
39,40,124.0
39,41,121.0
39,42,120.0
39,43,121.0
39,44,118.0
39,45,118.0
39,46,119.0
39,47,119.0
39,48,119.0
39,49,120.0
39,50,117.0
39,51,121.0
39,52,119.0
39,53,120.0
39,54,117.0
39,55,115.0
39,56,117.0
39,57,118.0
39,58,118.0
39,59,118.0
39,60,117.0
39,61,118.0
39,62,117.0
39,63,120.0
39,64,122.0
39,65,121.0
39,66,121.0
39,67,120.0
39,68,120.0
39,69,121.0
39,70,118.0
39,71,123.0
39,72,118.0
39,73,120.0
39,74,123.0
39,75,122.0
39,76,118.0
39,77,117.0
39,78,120.0
39,79,122.0
39,80,119.0
40,0,102.0
40,1,98.0
40,2,101.0
40,3,102.0
40,4,103.0
40,5,98.0
40,6,103.0
40,7,102.0
40,8,100.0
40,9,97.0
40,10,98.0
40,11,102.0
40,12,99.0
40,13,98.0
40,14,97.0
40,15,100.0
40,16,100.0
40,17,100.0
40,18,100.0
40,19,101.0
40,20,100.0
40,21,100.0
40,22,100.0
40,23,103.0
40,24,102.0
40,25,99.0
40,26,102.0
40,27,98.0
40,28,97.0
40,29,104.0
40,30,98.0
40,31,100.0
40,32,102.0
40,33,101.0
40,34,99.0
40,35,99.0
40,36,102.0
40,37,100.0
40,38,99.0
40,39,100.0
40,40,100.0
40,41,101.0
40,42,96.0
40,43,99.0
40,44,96.0
40,45,99.0
40,46,99.0
40,47,99.0
40,48,98.0
40,49,100.0
40,50,101.0
40,51,101.0
40,52,101.0
40,53,101.0
40,54,101.0
40,55,104.0
40,56,101.0
40,57,104.0
40,58,101.0
40,59,102.0
40,60,102.0
40,61,100.0
40,62,102.0
40,63,102.0
40,64,103.0
40,65,102.0
40,66,102.0
40,67,100.0
40,68,101.0
40,69,101.0
40,70,101.0
40,71,100.0
40,72,102.0
40,73,97.0
40,74,96.0
40,75,97.0
40,76,99.0
40,77,98.0
40,78,98.0
40,79,100.0
40,80,100.0
