track_id,frame,area
1,0,89.0
1,1,87.0
1,2,83.0
1,3,89.0
1,4,88.0
1,5,89.0
1,6,87.0
1,7,87.0
1,8,87.0
1,9,88.0
1,10,85.0
1,11,87.0
1,12,85.0
1,13,86.0
1,14,88.0
1,15,88.0
1,16,88.0
1,17,90.0
1,18,88.0
1,19,88.0
1,20,89.0
1,21,88.0
1,22,89.0
1,23,90.0
1,24,90.0
1,25,90.0
1,26,89.0
1,27,89.0
1,28,89.0
1,29,89.0
1,30,87.0
1,31,87.0
1,32,88.0
1,33,87.0
1,34,88.0
1,35,86.0
1,36,88.0
1,37,87.0
1,38,87.0
1,39,86.0
1,40,83.0
1,41,79.0
1,42,75.0
1,43,77.0
1,44,75.0
1,45,72.0
1,46,71.0
1,47,76.0
1,48,79.0
1,49,77.0
1,50,78.0
1,51,79.0
1,52,78.0
1,53,76.0
1,54,76.0
1,55,76.0
1,56,76.0
1,57,81.0
1,58,84.0
1,59,86.0
1,60,85.0
1,61,87.0
1,62,86.0
1,63,88.0
1,64,87.0
1,65,88.0
1,66,87.0
1,67,86.0
1,68,87.0
1,69,88.0
1,70,88.0
1,71,87.0
1,72,86.0
1,73,86.0
1,74,87.0
1,75,87.0
1,76,86.0
1,77,86.0
1,78,87.0
1,79,87.0
1,80,86.0
2,0,111.0
2,1,110.0
2,2,104.0
2,3,108.0
2,4,105.0
2,5,106.0
2,6,105.0
2,7,106.0
2,8,108.0
2,9,104.0
2,10,107.0
2,11,107.0
2,12,105.0
2,13,105.0
2,14,104.0
2,15,107.0
2,16,105.0
2,17,104.0
2,18,107.0
2,19,110.0
2,20,106.0
2,21,109.0
2,22,109.0
2,23,107.0
2,24,109.0
2,25,106.0
2,26,106.0
2,27,104.0
2,28,106.0
2,29,109.0
2,30,106.0
2,31,107.0
2,32,106.0
2,33,109.0
2,34,110.0
2,35,108.0
2,36,109.0
2,37,105.0
2,38,106.0
2,39,108.0
2,40,105.0
2,41,100.0
2,42,94.0
2,43,96.0
2,44,91.0
2,45,95.0
2,46,97.0
2,47,98.0
2,48,95.0
2,49,95.0
2,50,94.0
2,51,92.0
2,52,92.0
2,53,94.0
2,54,92.0
2,55,95.0
2,56,98.0
2,57,100.0
2,58,101.0
2,59,105.0
2,60,106.0
2,61,107.0
2,62,103.0
2,63,101.0
2,64,106.0
2,65,103.0
2,66,108.0
2,67,102.0
2,68,105.0
2,69,105.0
2,70,106.0
2,71,105.0
2,72,105.0
2,73,103.0
2,74,105.0
2,75,107.0
2,76,106.0
2,77,107.0
2,78,101.0
2,79,103.0
2,80,105.0
3,0,95.0
3,1,101.0
3,2,99.0
3,3,99.0
3,4,101.0
3,5,102.0
3,6,95.0
3,7,96.0
3,8,99.0
3,9,97.0
3,10,95.0
3,11,96.0
3,12,97.0
3,13,97.0
3,14,93.0
3,15,97.0
3,16,128.0
3,17,96.0
3,18,98.0
3,19,97.0
3,20,98.0
3,21,94.0
3,22,97.0
3,23,95.0
3,24,96.0
3,25,96.0
3,26,96.0
3,27,96.0
3,28,93.0
3,29,92.0
3,30,93.0
3,31,96.0
3,32,91.0
3,33,98.0
3,34,97.0
3,35,93.0
3,36,93.0
3,37,97.0
3,38,96.0
3,39,99.0
3,40,97.0
3,41,92.0
3,42,87.0
3,43,88.0
3,44,87.0
3,45,85.0
3,46,85.0
3,47,84.0
3,48,84.0
3,49,85.0
3,50,82.0
3,51,85.0
3,52,88.0
3,53,88.0
3,54,90.0
3,55,89.0
3,56,84.0
3,57,90.0
3,58,86.0
3,59,91.0
3,60,94.0
3,61,96.0
3,62,91.0
3,63,95.0
3,64,94.0
3,65,95.0
3,66,96.0
3,67,97.0
3,68,96.0
3,69,96.0
3,70,94.0
3,71,96.0
3,72,94.0
3,73,95.0
3,74,95.0
3,75,92.0
3,76,93.0
3,77,93.0
3,78,95.0
3,79,92.0
3,80,92.0
4,0,139.0
4,1,135.0
4,2,139.0
4,3,138.0
4,4,138.0
4,5,138.0
4,6,135.0
4,7,140.0
4,8,138.0
4,9,137.0
4,10,139.0
4,11,138.0
4,12,138.0
4,13,137.0
4,14,135.0
4,15,134.0
4,16,135.0
4,17,134.0
4,18,134.0
4,19,134.0
4,20,135.0
4,21,132.0
4,22,134.0
4,23,137.0
4,24,139.0
4,25,137.0
4,26,137.0
4,27,138.0
4,28,136.0
4,29,140.0
4,30,137.0
4,31,140.0
4,32,139.0
4,33,138.0
4,34,138.0
4,35,139.0
4,36,137.0
4,37,139.0
4,38,137.0
4,39,136.0
4,40,136.0
4,41,133.0
4,42,128.0
4,43,115.0
4,44,115.0
4,45,115.0
4,46,118.0
4,47,121.0
4,48,118.0
4,49,122.0
4,50,123.0
4,51,123.0
4,52,122.0
4,53,121.0
4,54,121.0
4,55,118.0
4,56,121.0
4,57,125.0
4,58,128.0
4,59,130.0
4,60,130.0
4,61,133.0
4,62,131.0
4,63,133.0
4,64,136.0
4,65,137.0
4,66,135.0
4,67,136.0
4,68,134.0
4,69,137.0
4,70,134.0
4,71,135.0
4,72,137.0
4,73,137.0
4,74,135.0
4,75,136.0
4,76,136.0
4,77,136.0
4,78,137.0
4,79,133.0
4,80,135.0
5,0,81.0
5,1,82.0
5,2,85.0
5,3,81.0
5,4,84.0
5,5,83.0
5,6,83.0
5,7,83.0
5,8,84.0
5,9,83.0
5,10,80.0
5,11,81.0
5,12,82.0
5,13,81.0
5,14,81.0
5,15,83.0
5,16,82.0
5,17,77.0
5,18,80.0
5,19,78.0
5,20,78.0
5,21,80.0
5,22,79.0
5,23,80.0
5,24,79.0
5,25,81.0
5,26,83.0
5,27,77.0
5,28,79.0
5,29,84.0
5,30,84.0
5,31,82.0
5,32,86.0
5,33,84.0
5,34,81.0
5,35,80.0
5,36,81.0
5,37,84.0
5,38,82.0
5,39,81.0
5,40,81.0
5,41,78.0
5,42,73.0
5,43,70.0
5,44,69.0
5,45,73.0
5,46,72.0
5,47,72.0
5,48,70.0
5,49,73.0
5,50,71.0
5,51,70.0
5,52,71.0
5,53,72.0
5,54,72.0
5,55,70.0
5,56,73.0
5,57,79.0
5,58,77.0
5,59,79.0
5,60,82.0
5,61,78.0
5,62,83.0
5,63,78.0
5,64,80.0
5,65,75.0
5,66,72.0
5,67,77.0
5,68,73.0
5,69,76.0
5,70,79.0
5,71,78.0
5,72,73.0
5,73,76.0
5,74,77.0
5,75,78.0
5,76,77.0
5,77,78.0
5,78,78.0
5,79,73.0
5,80,77.0
6,0,108.0
6,1,110.0
6,2,107.0
6,3,109.0
6,4,110.0
6,5,109.0
6,6,107.0
6,7,106.0
6,8,108.0
6,9,108.0
6,10,106.0
6,11,106.0
6,12,106.0
6,13,105.0
6,14,103.0
6,15,103.0
6,16,104.0
6,17,104.0
6,18,104.0
6,19,105.0
6,20,107.0
6,21,106.0
6,22,106.0
6,23,108.0
6,24,107.0
6,25,109.0
6,26,107.0
6,27,108.0
6,28,106.0
6,29,109.0
6,30,112.0
6,31,113.0
6,32,113.0
6,33,110.0
6,34,110.0
6,35,112.0
6,36,111.0
6,37,110.0
6,38,108.0
6,39,110.0
6,40,105.0
6,41,104.0
6,42,97.0
6,43,93.0
6,44,95.0
6,45,97.0
6,46,94.0
6,47,97.0
6,48,94.0
6,49,95.0
6,50,93.0
6,51,95.0
6,52,95.0
6,53,94.0
6,54,96.0
6,55,96.0
6,56,93.0
6,57,97.0
6,58,100.0
6,59,101.0
6,60,101.0
6,61,102.0
6,62,106.0
6,63,102.0
6,64,103.0
6,65,105.0
6,66,102.0
6,67,102.0
6,68,103.0
6,69,103.0
6,70,103.0
6,71,104.0
6,72,102.0
6,73,101.0
6,74,102.0
6,75,103.0
6,76,105.0
6,77,105.0
6,78,105.0
6,79,105.0
6,80,102.0
7,0,99.0
7,1,102.0
7,2,102.0
7,3,105.0
7,4,104.0
7,5,103.0
7,6,103.0
7,7,104.0
7,8,102.0
7,9,99.0
7,10,102.0
7,11,99.0
7,12,100.0
7,13,106.0
7,14,105.0
7,15,101.0
7,16,100.0
7,17,103.0
7,18,102.0
7,19,102.0
7,20,105.0
7,21,103.0
7,22,104.0
7,23,105.0
7,24,100.0
7,25,103.0
7,26,104.0
7,27,105.0
7,28,101.0
7,29,103.0
7,30,99.0
7,31,100.0
7,32,103.0
7,33,101.0
7,34,103.0
7,35,104.0
7,36,105.0
7,37,106.0
7,38,105.0
7,39,106.0
7,40,106.0
7,41,95.0
7,42,95.0
7,43,94.0
7,44,87.0
7,45,88.0
7,46,87.0
7,47,89.0
7,48,87.0
7,49,90.0
7,50,88.0
7,51,87.0
7,52,86.0
7,53,88.0
7,54,87.0
7,55,90.0
7,56,93.0
7,57,96.0
7,58,96.0
7,59,99.0
7,60,101.0
7,61,100.0
7,62,102.0
7,63,102.0
7,64,101.0
7,65,98.0
7,66,101.0
7,67,101.0
7,68,101.0
7,69,97.0
7,70,96.0
7,71,100.0
7,72,99.0
7,73,96.0
7,74,102.0
7,75,98.0
7,76,99.0
7,77,100.0
7,78,101.0
7,79,97.0
7,80,99.0
8,0,185.0
8,1,183.0
8,2,183.0
8,3,184.0
8,4,189.0
8,5,189.0
8,6,184.0
8,7,190.0
8,8,186.0
8,9,187.0
8,10,187.0
8,11,185.0
8,12,185.0
8,13,185.0
8,14,183.0
8,15,184.0
8,16,182.0
8,17,182.0
8,18,180.0
8,19,184.0
8,20,180.0
8,21,180.0
8,22,180.0
8,23,176.0
8,24,175.0
8,25,178.0
8,26,175.0
8,27,177.0
8,28,176.0
8,29,179.0
8,30,179.0
8,31,182.0
8,32,182.0
8,33,184.0
8,34,184.0
8,35,183.0
8,36,186.0
8,37,185.0
8,38,183.0
8,39,185.0
8,40,181.0
8,41,174.0
8,42,164.0
8,43,158.0
8,44,158.0
8,45,162.0
8,46,162.0
8,47,155.0
8,48,157.0
8,49,159.0
8,50,161.0
8,51,156.0
8,52,155.0
8,53,159.0
8,54,164.0
8,55,164.0
8,56,157.0
8,57,169.0
8,58,172.0
8,59,176.0
8,60,180.0
8,61,181.0
8,62,184.0
8,63,183.0
8,64,182.0
8,65,182.0
8,66,178.0
8,67,183.0
8,68,181.0
8,69,185.0
8,70,180.0
8,71,180.0
8,72,182.0
8,73,185.0
8,74,183.0
8,75,196.0
8,76,183.0
8,77,187.0
8,78,184.0
8,79,182.0
8,80,179.0
9,0,92.0
9,1,95.0
9,2,91.0
9,3,92.0
9,4,98.0
9,5,93.0
9,6,90.0
9,7,96.0
9,8,97.0
9,9,98.0
9,10,99.0
9,11,98.0
9,12,92.0
9,13,98.0
9,14,99.0
9,15,96.0
9,16,97.0
9,17,94.0
9,18,94.0
9,19,96.0
9,20,91.0
9,21,93.0
9,22,95.0
9,23,93.0
9,24,94.0
9,25,98.0
9,26,94.0
9,27,97.0
9,28,95.0
9,29,96.0
9,30,90.0
9,31,93.0
9,32,92.0
9,33,92.0
9,34,90.0
9,35,90.0
9,36,91.0
9,37,91.0
9,38,92.0
9,39,96.0
9,40,90.0
9,41,90.0
9,42,83.0
9,43,84.0
9,44,84.0
9,45,86.0
9,46,86.0
9,47,86.0
9,48,86.0
9,49,88.0
9,50,89.0
9,51,90.0
9,52,86.0
9,53,90.0
9,54,90.0
9,55,92.0
9,56,89.0
9,57,95.0
9,58,93.0
9,59,92.0
9,60,92.0
9,61,91.0
9,62,93.0
9,63,93.0
9,64,90.0
9,65,91.0
9,66,92.0
9,67,90.0
9,68,94.0
9,69,92.0
9,70,93.0
9,71,93.0
9,72,94.0
9,73,95.0
9,74,93.0
9,75,91.0
9,76,94.0
9,77,97.0
9,78,91.0
9,79,93.0
9,80,95.0
10,0,150.0
10,1,151.0
10,2,153.0
10,3,155.0
10,4,149.0
10,5,151.0
10,6,152.0
10,7,151.0
10,8,150.0
10,9,147.0
10,10,149.0
10,11,150.0
10,12,151.0
10,13,152.0
10,14,155.0
10,15,153.0
10,16,152.0
10,17,152.0
10,18,151.0
10,19,153.0
10,20,150.0
10,21,153.0
10,22,151.0
10,23,150.0
10,24,152.0
10,25,152.0
10,26,154.0
10,27,153.0
10,28,153.0
10,29,154.0
10,30,152.0
10,31,151.0
10,32,150.0
10,33,155.0
10,34,152.0
10,35,151.0
10,36,153.0
10,37,153.0
10,38,151.0
10,39,150.0
10,40,147.0
10,41,145.0
10,42,135.0
10,43,133.0
10,44,131.0
10,45,131.0
10,46,132.0
10,47,128.0
10,48,132.0
10,49,132.0
10,50,131.0
10,51,133.0
10,52,129.0
10,53,131.0
10,54,131.0
10,55,136.0
10,56,135.0
10,57,144.0
10,58,148.0
10,59,148.0
10,60,152.0
10,61,150.0
10,62,151.0
10,63,154.0
10,64,153.0
10,65,147.0
10,66,151.0
10,67,150.0
10,68,152.0
10,69,154.0
10,70,154.0
10,71,153.0
10,72,152.0
10,73,155.0
10,74,154.0
10,75,153.0
10,76,152.0
10,77,153.0
10,78,150.0
10,79,152.0
10,80,149.0
11,0,91.0
11,1,92.0
11,2,91.0
11,3,89.0
11,4,90.0
11,5,91.0
11,6,87.0
11,7,90.0
11,8,88.0
11,9,88.0
11,10,86.0
11,11,88.0
11,12,87.0
11,13,87.0
11,14,86.0
11,15,88.0
11,16,88.0
11,17,88.0
11,18,88.0
11,19,91.0
11,20,89.0
11,21,89.0
11,22,88.0
11,23,89.0
11,24,90.0
11,25,91.0
11,26,92.0
11,27,89.0
11,28,88.0
11,29,93.0
11,30,94.0
11,31,93.0
11,32,91.0
11,33,90.0
11,34,90.0
11,35,92.0
11,36,88.0
11,37,88.0
11,38,89.0
11,39,85.0
11,40,88.0
11,41,85.0
11,42,86.0
11,43,83.0
11,44,80.0
11,45,82.0
11,46,80.0
11,47,80.0
11,48,80.0
11,49,80.0
11,50,78.0
11,51,79.0
11,52,81.0
11,53,83.0
11,54,83.0
11,55,82.0
11,56,84.0
11,57,83.0
11,58,82.0
11,59,85.0
11,60,87.0
11,61,87.0
11,62,86.0
11,63,88.0
11,64,85.0
11,65,87.0
11,66,87.0
11,67,87.0
11,68,86.0
11,69,88.0
11,70,88.0
11,71,86.0
11,72,86.0
11,73,85.0
11,74,84.0
11,75,87.0
11,76,84.0
11,77,86.0
11,78,86.0
11,79,84.0
11,80,85.0
12,0,97.0
12,1,95.0
12,2,95.0
12,3,93.0
12,4,94.0
12,5,95.0
12,6,94.0
12,7,94.0
12,8,97.0
12,9,97.0
12,10,95.0
12,11,96.0
12,12,96.0
12,13,96.0
12,14,97.0
12,15,97.0
12,16,98.0
12,17,96.0
12,18,96.0
12,19,94.0
12,20,95.0
12,21,95.0
12,22,94.0
12,23,95.0
12,24,95.0
12,25,97.0
12,26,97.0
12,27,97.0
12,28,97.0
12,29,99.0
12,30,98.0
12,31,97.0
12,32,97.0
12,33,97.0
12,34,97.0
12,35,99.0
12,36,94.0
12,37,98.0
12,38,98.0
12,39,97.0
12,40,94.0
12,41,91.0
12,42,86.0
12,43,87.0
12,44,85.0
12,45,82.0
12,46,84.0
12,47,86.0
12,48,85.0
12,49,84.0
12,50,84.0
12,51,88.0
12,52,84.0
12,53,82.0
12,54,82.0
12,55,87.0
12,56,89.0
12,57,89.0
12,58,92.0
12,59,90.0
12,60,95.0
12,61,96.0
12,62,98.0
12,63,98.0
12,64,97.0
12,65,98.0
12,66,97.0
12,67,98.0
12,68,96.0
12,69,97.0
12,70,94.0
12,71,96.0
12,72,98.0
12,73,95.0
12,74,95.0
12,75,93.0
12,76,94.0
12,77,94.0
12,78,95.0
12,79,94.0
12,80,95.0
13,0,124.0
13,1,127.0
13,2,129.0
13,3,129.0
13,4,127.0
13,5,130.0
13,6,132.0
13,7,132.0
13,8,132.0
13,9,132.0
13,10,130.0
13,11,129.0
13,12,130.0
13,13,129.0
13,14,130.0
13,15,127.0
13,16,128.0
13,17,127.0
13,18,127.0
13,19,126.0
13,20,125.0
13,21,124.0
13,22,126.0
13,23,125.0
13,24,126.0
13,25,123.0
13,26,126.0
13,27,125.0
13,28,126.0
13,29,122.0
13,30,124.0
13,31,125.0
13,32,124.0
13,33,127.0
13,34,128.0
13,35,126.0
13,36,129.0
13,37,128.0
13,38,128.0
13,39,128.0
13,40,127.0
13,41,126.0
13,42,121.0
13,43,114.0
13,44,112.0
13,45,113.0
13,46,116.0
13,47,115.0
13,48,117.0
13,49,110.0
13,50,112.0
13,51,115.0
13,52,115.0
13,53,116.0
13,54,115.0
13,55,112.0
13,56,115.0
13,57,119.0
13,58,120.0
13,59,121.0
13,60,122.0
13,61,122.0
13,62,123.0
13,63,123.0
13,64,123.0
13,65,124.0
13,66,124.0
13,67,120.0
13,68,121.0
13,69,122.0
13,70,122.0
13,71,125.0
13,72,123.0
13,73,124.0
13,74,123.0
13,75,124.0
13,76,125.0
13,77,123.0
13,78,127.0
13,79,123.0
13,80,126.0
14,0,95.0
14,1,99.0
14,2,91.0
14,3,95.0
14,4,95.0
14,5,89.0
14,6,89.0
14,7,95.0
14,8,93.0
14,9,96.0
14,10,96.0
14,11,96.0
14,12,95.0
14,13,94.0
14,14,94.0
14,15,94.0
14,16,93.0
14,17,94.0
14,18,94.0
14,19,96.0
14,20,95.0
14,21,94.0
14,22,90.0
14,23,91.0
14,24,93.0
14,25,92.0
14,26,93.0
14,27,94.0
14,28,93.0
14,29,91.0
14,30,93.0
14,31,95.0
14,32,95.0
14,33,96.0
14,34,95.0
14,35,97.0
14,36,98.0
14,37,97.0
14,38,96.0
14,39,99.0
14,40,90.0
14,41,86.0
14,42,84.0
14,43,85.0
14,44,86.0
14,45,86.0
14,46,86.0
14,47,86.0
14,48,83.0
14,49,83.0
14,50,82.0
14,51,84.0
14,52,83.0
14,53,84.0
14,54,83.0
14,55,80.0
14,56,84.0
14,57,84.0
14,58,84.0
14,59,89.0
14,60,94.0
14,61,89.0
14,62,98.0
14,63,99.0
14,64,91.0
14,65,97.0
14,66,90.0
14,67,94.0
14,68,96.0
14,69,93.0
14,70,94.0
14,71,92.0
14,72,92.0
14,73,93.0
14,74,94.0
14,75,94.0
14,76,91.0
14,77,94.0
14,78,94.0
14,79,93.0
14,80,92.0
15,0,106.0
15,1,107.0
15,2,106.0
15,3,108.0
15,4,108.0
15,5,109.0
15,6,108.0
15,7,109.0
15,8,109.0
15,9,106.0
15,10,106.0
15,11,109.0
15,12,107.0
15,13,105.0
15,14,103.0
15,15,105.0
15,16,103.0
15,17,106.0
15,18,108.0
15,19,105.0
15,20,105.0
15,21,104.0
15,22,105.0
15,23,104.0
15,24,105.0
15,25,107.0
15,26,107.0
15,27,107.0
15,28,107.0
15,29,106.0
15,30,106.0
15,31,105.0
15,32,106.0
15,33,104.0
15,34,109.0
15,35,108.0
15,36,109.0
15,37,108.0
15,38,107.0
15,39,106.0
15,40,106.0
15,41,102.0
15,42,98.0
15,43,95.0
15,44,94.0
15,45,95.0
15,46,95.0
15,47,94.0
15,48,97.0
15,49,95.0
15,50,94.0
15,51,98.0
15,52,97.0
15,53,98.0
15,54,98.0
15,55,96.0
15,56,98.0
15,57,98.0
15,58,101.0
15,59,107.0
15,60,108.0
15,61,107.0
15,62,107.0
15,63,105.0
15,64,109.0
15,65,111.0
15,66,111.0
15,67,110.0
15,68,109.0
15,69,111.0
15,70,109.0
15,71,108.0
15,72,109.0
15,73,107.0
15,74,107.0
15,75,105.0
15,76,108.0
15,77,108.0
15,78,104.0
15,79,107.0
15,80,105.0
16,0,113.0
16,1,114.0
16,2,115.0
16,3,115.0
16,4,114.0
16,5,114.0
16,6,113.0
16,7,114.0
16,8,113.0
16,9,112.0
16,10,113.0
16,11,111.0
16,12,112.0
16,13,111.0
16,14,113.0
16,15,113.0
16,16,112.0
16,17,113.0
16,18,111.0
16,19,113.0
16,20,114.0
16,21,113.0
16,22,111.0
16,23,113.0
16,24,110.0
16,25,114.0
16,26,114.0
16,27,115.0
16,28,114.0
16,29,115.0
16,30,111.0
16,31,111.0
16,32,116.0
16,33,115.0
16,34,114.0
16,35,114.0
16,36,114.0
16,37,113.0
16,38,115.0
16,39,112.0
16,40,111.0
16,41,108.0
16,42,103.0
16,43,102.0
16,44,99.0
16,45,102.0
16,46,99.0
16,47,99.0
16,48,99.0
16,49,102.0
16,50,101.0
16,51,102.0
16,52,97.0
16,53,99.0
16,54,99.0
16,55,99.0
16,56,99.0
16,57,104.0
16,58,109.0
16,59,112.0
16,60,115.0
16,61,113.0
16,62,114.0
16,63,112.0
16,64,115.0
16,65,111.0
16,66,112.0
16,67,113.0
16,68,115.0
16,69,113.0
16,70,111.0
16,71,113.0
16,72,114.0
16,73,113.0
16,74,114.0
16,75,112.0
16,76,114.0
16,77,112.0
16,78,111.0
16,79,110.0
16,80,108.0
17,0,138.0
17,1,136.0
17,2,138.0
17,3,139.0
17,4,135.0
17,5,137.0
17,6,136.0
17,7,138.0
17,8,136.0
17,9,137.0
17,10,139.0
17,11,138.0
17,12,136.0
17,13,136.0
17,14,135.0
17,15,133.0
17,16,135.0
17,17,134.0
17,18,134.0
17,19,135.0
17,20,134.0
17,21,133.0
17,22,135.0
17,23,135.0
17,24,136.0
17,25,134.0
17,26,136.0
17,27,137.0
17,28,137.0
17,29,139.0
17,30,138.0
17,31,137.0
17,32,139.0
17,33,136.0
17,34,137.0
17,35,138.0
17,36,138.0
17,37,137.0
17,38,137.0
17,39,135.0
17,40,135.0
17,41,134.0
17,42,124.0
17,43,115.0
17,44,117.0
17,45,116.0
17,46,115.0
17,47,118.0
17,48,118.0
17,49,121.0
17,50,123.0
17,51,123.0
17,52,121.0
17,53,120.0
17,54,119.0
17,55,119.0
17,56,121.0
17,57,123.0
17,58,126.0
17,59,128.0
17,60,126.0
17,61,133.0
17,62,129.0
17,63,130.0
17,64,134.0
17,65,135.0
17,66,135.0
17,67,135.0
17,68,131.0
17,69,136.0
17,70,136.0
17,71,135.0
17,72,136.0
17,73,136.0
17,74,133.0
17,75,133.0
17,76,135.0
17,77,134.0
17,78,136.0
17,79,134.0
17,80,135.0
18,0,107.0
18,1,109.0
18,2,109.0
18,3,108.0
18,4,107.0
18,5,111.0
18,6,108.0
18,7,110.0
18,8,111.0
18,9,111.0
18,10,109.0
18,11,109.0
18,12,112.0
18,13,108.0
18,14,108.0
18,15,107.0
18,16,105.0
18,17,107.0
18,18,109.0
18,19,108.0
18,20,107.0
18,21,109.0
18,22,108.0
18,23,111.0
18,24,109.0
18,25,107.0
18,26,108.0
18,27,107.0
18,28,110.0
18,29,105.0
18,30,108.0
18,31,107.0
18,32,107.0
18,33,107.0
18,34,104.0
18,35,107.0
18,36,108.0
18,37,109.0
18,38,109.0
18,39,110.0
18,40,109.0
18,41,103.0
18,42,102.0
18,43,97.0
18,44,97.0
18,45,100.0
18,46,98.0
18,47,100.0
18,48,100.0
18,49,99.0
18,50,100.0
18,51,99.0
18,52,95.0
18,53,99.0
18,54,96.0
18,55,99.0
18,56,98.0
18,57,102.0
18,58,102.0
18,59,104.0
18,60,105.0
18,61,104.0
18,62,105.0
18,63,105.0
18,64,105.0
18,65,105.0
18,66,104.0
18,67,104.0
18,68,105.0
18,69,102.0
18,70,104.0
18,71,106.0
18,72,107.0
18,73,106.0
18,74,107.0
18,75,106.0
18,76,104.0
18,77,105.0
18,78,107.0
18,79,106.0
18,80,106.0
19,0,154.0
19,1,152.0
19,2,154.0
19,3,157.0
19,4,150.0
19,5,151.0
19,6,152.0
19,7,152.0
19,8,150.0
19,9,147.0
19,10,150.0
19,11,150.0
19,12,151.0
19,13,154.0
19,14,154.0
19,15,153.0
19,16,152.0
19,17,151.0
19,18,151.0
19,19,152.0
19,20,151.0
19,21,153.0
19,22,152.0
19,23,154.0
19,24,152.0
19,25,153.0
19,26,154.0
19,27,153.0
19,28,154.0
19,29,154.0
19,30,152.0
19,31,151.0
19,32,150.0
19,33,154.0
19,34,153.0
19,35,152.0
19,36,152.0
19,37,155.0
19,38,155.0
19,39,151.0
19,40,148.0
19,41,146.0
19,42,135.0
19,43,133.0
19,44,131.0
19,45,133.0
19,46,132.0
19,47,131.0
19,48,132.0
19,49,132.0
19,50,132.0
19,51,133.0
19,52,130.0
19,53,131.0
19,54,131.0
19,55,136.0
19,56,135.0
19,57,144.0
19,58,147.0
19,59,149.0
19,60,151.0
19,61,150.0
19,62,151.0
19,63,153.0
19,64,153.0
19,65,148.0
19,66,150.0
19,67,151.0
19,68,152.0
19,69,154.0
19,70,153.0
19,71,154.0
19,72,153.0
19,73,156.0
19,74,154.0
19,75,154.0
19,76,152.0
19,77,153.0
19,78,150.0
19,79,153.0
19,80,148.0
20,0,93.0
20,1,94.0
20,2,91.0
20,3,93.0
20,4,98.0
20,5,93.0
20,6,92.0
20,7,97.0
20,8,98.0
20,9,99.0
20,10,99.0
20,11,100.0
20,12,93.0
20,13,98.0
20,14,100.0
20,15,98.0
20,16,100.0
20,17,96.0
20,18,94.0
20,19,95.0
20,20,92.0
20,21,95.0
20,22,96.0
20,23,93.0
20,24,96.0
20,25,98.0
20,26,95.0
20,27,98.0
20,28,96.0
20,29,96.0
20,30,91.0
20,31,93.0
20,32,93.0
20,33,92.0
20,34,92.0
20,35,91.0
20,36,91.0
20,37,93.0
20,38,92.0
20,39,97.0
20,40,90.0
20,41,90.0
20,42,85.0
20,43,84.0
20,44,84.0
20,45,84.0
20,46,86.0
20,47,86.0
20,48,85.0
20,49,89.0
20,50,89.0
20,51,90.0
20,52,88.0
20,53,92.0
20,54,89.0
20,55,92.0
20,56,91.0
20,57,95.0
20,58,94.0
20,59,94.0
20,60,94.0
20,61,91.0
20,62,94.0
20,63,94.0
20,64,92.0
20,65,91.0
20,66,93.0
20,67,90.0
20,68,94.0
20,69,93.0
20,70,96.0
20,71,93.0
20,72,93.0
20,73,95.0
20,74,93.0
20,75,91.0
20,76,92.0
20,77,96.0
20,78,91.0
20,79,93.0
20,80,97.0
21,0,113.0
21,1,112.0
21,2,112.0
21,3,115.0
21,4,115.0
21,5,114.0
21,6,114.0
21,7,112.0
21,8,114.0
21,9,113.0
21,10,112.0
21,11,109.0
21,12,111.0
21,13,110.0
21,14,111.0
21,15,109.0
21,16,112.0
21,17,114.0
21,18,112.0
21,19,112.0
21,20,112.0
21,21,110.0
21,22,111.0
21,23,113.0
21,24,114.0
21,25,112.0
21,26,115.0
21,27,119.0
21,28,113.0
21,29,114.0
21,30,112.0
21,31,114.0
21,32,112.0
21,33,111.0
21,34,112.0
21,35,112.0
21,36,112.0
21,37,111.0
21,38,113.0
21,39,112.0
21,40,113.0
21,41,103.0
21,42,100.0
21,43,99.0
21,44,103.0
21,45,100.0
21,46,102.0
21,47,103.0
21,48,101.0
21,49,103.0
21,50,98.0
21,51,97.0
21,52,99.0
21,53,104.0
21,54,100.0
21,55,101.0
21,56,107.0
21,57,102.0
21,58,101.0
21,59,103.0
21,60,104.0
21,61,101.0
21,62,105.0
21,63,108.0
21,64,106.0
21,65,105.0
21,66,105.0
21,67,106.0
21,68,109.0
21,69,108.0
21,70,108.0
21,71,106.0
21,72,106.0
21,73,106.0
21,74,106.0
21,75,108.0
21,76,107.0
21,77,105.0
21,78,108.0
21,79,107.0
21,80,104.0
22,0,107.0
22,1,107.0
22,2,107.0
22,3,108.0
22,4,107.0
22,5,108.0
22,6,107.0
22,7,108.0
22,8,105.0
22,9,107.0
22,10,104.0
22,11,105.0
22,12,105.0
22,13,103.0
22,14,105.0
22,15,105.0
22,16,105.0
22,17,109.0
22,18,108.0
22,19,108.0
22,20,111.0
22,21,108.0
22,22,107.0
22,23,109.0
22,24,110.0
22,25,109.0
22,26,107.0
22,27,110.0
22,28,107.0
22,29,107.0
22,30,109.0
22,31,109.0
22,32,106.0
22,33,108.0
22,34,108.0
22,35,108.0
22,36,108.0
22,37,109.0
22,38,108.0
22,39,108.0
22,40,108.0
22,41,107.0
22,42,101.0
22,43,101.0
22,44,99.0
22,45,100.0
22,46,93.0
22,47,98.0
22,48,99.0
22,49,98.0
22,50,96.0
22,51,93.0
22,52,93.0
22,53,90.0
22,54,90.0
22,55,96.0
22,56,99.0
22,57,102.0
22,58,99.0
22,59,109.0
22,60,106.0
22,61,102.0
22,62,105.0
22,63,100.0
22,64,108.0
22,65,108.0
22,66,106.0
22,67,105.0
22,68,100.0
22,69,105.0
22,70,103.0
22,71,98.0
22,72,101.0
22,73,103.0
22,74,99.0
22,75,101.0
22,76,102.0
22,77,101.0
22,78,104.0
22,79,97.0
22,80,101.0
23,0,124.0
23,1,127.0
23,2,125.0
23,3,129.0
23,4,127.0
23,5,127.0
23,6,129.0
23,7,130.0
23,8,132.0
23,9,132.0
23,10,129.0
23,11,129.0
23,12,130.0
23,13,129.0
23,14,128.0
23,15,127.0
23,16,128.0
23,17,125.0
23,18,127.0
23,19,123.0
23,20,125.0
23,21,124.0
23,22,124.0
23,23,125.0
23,24,126.0
23,25,123.0
23,26,126.0
23,27,125.0
23,28,126.0
23,29,122.0
23,30,124.0
23,31,125.0
23,32,121.0
23,33,125.0
23,34,126.0
23,35,126.0
23,36,128.0
23,37,128.0
23,38,125.0
23,39,128.0
23,40,125.0
23,41,124.0
23,42,118.0
23,43,114.0
23,44,112.0
23,45,111.0
23,46,114.0
23,47,112.0
23,48,117.0
23,49,110.0
23,50,112.0
23,51,114.0
23,52,114.0
23,53,113.0
23,54,115.0
23,55,112.0
23,56,112.0
23,57,117.0
23,58,119.0
23,59,120.0
23,60,119.0
23,61,122.0
23,62,123.0
23,63,123.0
23,64,122.0
23,65,122.0
23,66,122.0
23,67,120.0
23,68,120.0
23,69,122.0
23,70,122.0
23,71,123.0
23,72,122.0
23,73,123.0
23,74,121.0
23,75,124.0
23,76,123.0
23,77,121.0
23,78,122.0
23,79,123.0
23,80,126.0
24,0,97.0
24,1,94.0
24,2,94.0
24,3,90.0
24,4,94.0
24,5,92.0
24,6,92.0
24,7,94.0
24,8,97.0
24,9,94.0
24,10,94.0
24,11,95.0
24,12,95.0
24,13,95.0
24,14,97.0
24,15,96.0
24,16,95.0
24,17,95.0
24,18,94.0
24,19,94.0
24,20,93.0
24,21,93.0
24,22,94.0
24,23,95.0
24,24,95.0
24,25,97.0
24,26,97.0
24,27,96.0
24,28,95.0
24,29,98.0
24,30,97.0
24,31,97.0
24,32,97.0
24,33,95.0
24,34,93.0
24,35,95.0
24,36,91.0
24,37,92.0
24,38,93.0
24,39,92.0
24,40,93.0
24,41,89.0
24,42,85.0
24,43,85.0
24,44,80.0
24,45,82.0
24,46,83.0
24,47,85.0
24,48,84.0
24,49,83.0
24,50,83.0
24,51,84.0
24,52,82.0
24,53,80.0
24,54,81.0
24,55,83.0
24,56,89.0
24,57,89.0
24,58,91.0
24,59,91.0
24,60,94.0
24,61,94.0
24,62,97.0
24,63,96.0
24,64,97.0
24,65,98.0
24,66,96.0
24,67,94.0
24,68,95.0
24,69,94.0
24,70,94.0
24,71,96.0
24,72,97.0
24,73,92.0
24,74,93.0
24,75,93.0
24,76,93.0
24,77,94.0
24,78,94.0
24,79,93.0
24,80,95.0
25,0,92.0
25,1,94.0
25,2,87.0
25,3,87.0
25,4,89.0
25,5,88.0
25,6,87.0
25,7,91.0
25,8,91.0
25,9,96.0
25,10,95.0
25,11,96.0
25,12,92.0
25,13,94.0
25,14,93.0
25,15,93.0
25,16,94.0
25,17,94.0
25,18,92.0
25,19,94.0
25,20,93.0
25,21,92.0
25,22,90.0
25,23,90.0
25,24,91.0
25,25,92.0
25,26,93.0
25,27,94.0
25,28,94.0
25,29,94.0
25,30,94.0
25,31,95.0
25,32,96.0
25,33,95.0
25,34,93.0
25,35,96.0
25,36,97.0
25,37,89.0
25,38,96.0
25,39,93.0
25,40,88.0
25,41,86.0
25,42,83.0
25,43,84.0
25,44,85.0
25,45,84.0
25,46,85.0
25,47,83.0
25,48,83.0
25,49,83.0
25,50,82.0
25,51,84.0
25,52,83.0
25,53,81.0
25,54,82.0
25,55,80.0
25,56,83.0
25,57,82.0
25,58,84.0
25,59,87.0
25,60,91.0
25,61,87.0
25,62,94.0
25,63,92.0
25,64,91.0
25,65,91.0
25,66,86.0
25,67,89.0
25,68,94.0
25,69,91.0
25,70,93.0
25,71,93.0
25,72,93.0
25,73,93.0
25,74,93.0
25,75,92.0
25,76,90.0
25,77,94.0
25,78,94.0
25,79,94.0
25,80,92.0
26,0,110.0
26,1,113.0
26,2,112.0
26,3,112.0
26,4,111.0
26,5,111.0
26,6,109.0
26,7,112.0
26,8,113.0
26,9,109.0
26,10,110.0
26,11,108.0
26,12,111.0
26,13,110.0
26,14,108.0
26,15,111.0
26,16,110.0
26,17,110.0
26,18,109.0
26,19,112.0
26,20,108.0
26,21,113.0
26,22,110.0
26,23,110.0
26,24,109.0
26,25,111.0
26,26,114.0
26,27,109.0
26,28,109.0
26,29,114.0
26,30,110.0
26,31,111.0
26,32,108.0
26,33,110.0
26,34,114.0
26,35,114.0
26,36,113.0
26,37,110.0
26,38,110.0
26,39,111.0
26,40,110.0
26,41,104.0
26,42,103.0
26,43,99.0
26,44,99.0
26,45,96.0
26,46,94.0
26,47,96.0
26,48,98.0
26,49,100.0
26,50,98.0
26,51,98.0
26,52,97.0
26,53,98.0
26,54,96.0
26,55,96.0
26,56,97.0
26,57,102.0
26,58,108.0
26,59,110.0
26,60,109.0
26,61,111.0
26,62,112.0
26,63,112.0
26,64,109.0
26,65,111.0
26,66,111.0
26,67,113.0
26,68,110.0
26,69,108.0
26,70,109.0
26,71,110.0
26,72,113.0
26,73,112.0
26,74,111.0
26,75,110.0
26,76,112.0
26,77,110.0
26,78,110.0
26,79,109.0
26,80,108.0
27,0,109.0
27,1,106.0
27,2,106.0
27,3,107.0
27,4,104.0
27,5,107.0
27,6,106.0
27,7,108.0
27,8,110.0
27,9,106.0
27,10,110.0
27,11,108.0
27,12,111.0
27,13,110.0
27,14,108.0
27,15,111.0
27,16,110.0
27,17,110.0
27,18,109.0
27,19,112.0
27,20,108.0
27,21,113.0
27,22,110.0
27,23,110.0
27,24,109.0
27,25,111.0
27,26,114.0
27,27,109.0
27,28,109.0
27,29,114.0
27,30,110.0
27,31,111.0
27,32,108.0
27,33,110.0
27,34,114.0
27,35,114.0
27,36,113.0
27,37,110.0
27,38,110.0
27,39,111.0
27,40,110.0
27,41,104.0
27,42,103.0
27,43,99.0
27,44,99.0
27,45,96.0
27,46,94.0
27,47,96.0
27,48,98.0
27,49,100.0
27,50,98.0
27,51,98.0
27,52,97.0
27,53,98.0
27,54,96.0
27,55,96.0
27,56,97.0
27,57,102.0
27,58,108.0
27,59,110.0
27,60,109.0
27,61,111.0
27,62,112.0
27,63,112.0
27,64,109.0
27,65,111.0
27,66,111.0
27,67,113.0
27,68,110.0
27,69,108.0
27,70,109.0
27,71,110.0
27,72,113.0
27,73,112.0
27,74,111.0
27,75,110.0
27,76,112.0
27,77,110.0
27,78,110.0
27,79,109.0
27,80,108.0
28,0,94.0
28,1,99.0
28,2,101.0
28,3,100.0
28,4,99.0
28,5,100.0
28,6,102.0
28,7,102.0
28,8,99.0
28,9,100.0
28,10,100.0
28,11,101.0
28,12,95.0
28,13,94.0
28,14,99.0
28,15,98.0
28,16,103.0
28,17,97.0
28,18,97.0
28,19,97.0
28,20,97.0
28,21,99.0
28,22,101.0
28,23,95.0
28,24,97.0
28,25,99.0
28,26,102.0
28,27,101.0
28,28,101.0
28,29,101.0
28,30,101.0
28,31,97.0
28,32,99.0
28,33,101.0
28,34,103.0
28,35,101.0
28,36,97.0
28,37,102.0
28,38,100.0
28,39,98.0
28,40,96.0
28,41,99.0
28,42,93.0
28,43,96.0
28,44,87.0
28,45,86.0
28,46,90.0
28,47,84.0
28,48,93.0
28,49,91.0
28,50,92.0
28,51,93.0
28,52,92.0
28,53,93.0
28,54,91.0
28,55,89.0
28,56,93.0
28,57,93.0
28,58,94.0
28,59,96.0
28,60,97.0
28,61,97.0
28,62,95.0
28,63,96.0
28,64,98.0
28,65,96.0
28,66,94.0
28,67,98.0
28,68,97.0
28,69,96.0
28,70,95.0
28,71,94.0
28,72,95.0
28,73,95.0
28,74,97.0
28,75,98.0
28,76,96.0
28,77,91.0
28,78,96.0
28,79,94.0
28,80,94.0
29,0,89.0
29,1,89.0
29,2,89.0
29,3,90.0
29,4,89.0
29,5,90.0
29,6,92.0
29,7,91.0
29,8,93.0
29,9,91.0
29,10,89.0
29,11,91.0
29,12,91.0
29,13,90.0
29,14,92.0
29,15,94.0
29,16,90.0
29,17,90.0
29,18,90.0
29,19,90.0
29,20,91.0
29,21,89.0
29,22,89.0
29,23,91.0
29,24,92.0
29,25,91.0
29,26,90.0
29,27,91.0
29,28,92.0
29,29,91.0
29,30,91.0
29,31,89.0
29,32,88.0
29,33,88.0
29,34,88.0
29,35,89.0
29,36,89.0
29,37,88.0
29,38,89.0
29,39,90.0
29,40,91.0
29,41,85.0
29,42,86.0
29,43,84.0
29,44,82.0
29,45,82.0
29,46,82.0
29,47,82.0
29,48,84.0
29,49,82.0
29,50,83.0
29,51,84.0
29,52,84.0
29,53,86.0
29,54,84.0
29,55,84.0
29,56,82.0
29,57,82.0
29,58,81.0
29,59,84.0
29,60,82.0
29,61,83.0
29,62,86.0
29,63,88.0
29,64,87.0
29,65,89.0
29,66,88.0
29,67,86.0
29,68,86.0
29,69,88.0
29,70,85.0
29,71,87.0
29,72,86.0
29,73,87.0
29,74,90.0
29,75,86.0
29,76,89.0
29,77,86.0
29,78,87.0
29,79,88.0
29,80,90.0
30,0,112.0
30,1,107.0
30,2,114.0
30,3,112.0
30,4,113.0
30,5,112.0
30,6,114.0
30,7,114.0
30,8,111.0
30,9,114.0
30,10,109.0
30,11,109.0
30,12,110.0
30,13,108.0
30,14,109.0
30,15,111.0
30,16,110.0
30,17,111.0
30,18,109.0
30,19,107.0
30,20,112.0
30,21,113.0
30,22,113.0
30,23,110.0
30,24,111.0
30,25,110.0
30,26,114.0
30,27,112.0
30,28,113.0
30,29,112.0
30,30,113.0
30,31,116.0
30,32,110.0
30,33,110.0
30,34,111.0
30,35,114.0
30,36,112.0
30,37,114.0
30,38,113.0
30,39,113.0
30,40,108.0
30,41,108.0
30,42,104.0
30,43,100.0
30,44,100.0
30,45,99.0
30,46,105.0
30,47,102.0
30,48,85.0
30,49,100.0
30,50,99.0
30,51,102.0
30,52,100.0
30,53,100.0
30,54,103.0
30,55,103.0
30,56,99.0
30,57,102.0
30,58,107.0
30,59,107.0
30,60,109.0
30,61,107.0
30,62,107.0
30,63,108.0
30,64,109.0
30,65,108.0
30,66,107.0
30,67,106.0
30,68,108.0
30,69,105.0
30,70,107.0
30,71,111.0
30,72,111.0
30,73,112.0
30,74,111.0
30,75,112.0
30,76,112.0
30,77,113.0
30,78,113.0
30,79,112.0
30,80,111.0
31,0,125.0
31,1,124.0
31,2,127.0
31,3,126.0
31,4,127.0
31,5,130.0
31,6,122.0
31,7,122.0
31,8,124.0
31,9,124.0
31,10,127.0
31,11,123.0
31,12,126.0
31,13,123.0
31,14,123.0
31,15,123.0
31,16,124.0
31,17,123.0
31,18,124.0
31,19,125.0
31,20,123.0
31,21,123.0
31,22,124.0
31,23,123.0
31,24,124.0
31,25,125.0
31,26,126.0
31,27,127.0
31,28,127.0
31,29,127.0
31,30,126.0
31,31,125.0
31,32,126.0
31,33,127.0
31,34,123.0
31,35,125.0
31,36,130.0
31,37,125.0
31,38,129.0
31,39,124.0
31,40,124.0
31,41,120.0
31,42,118.0
31,43,116.0
31,44,113.0
31,45,115.0
31,46,115.0
31,47,118.0
31,48,117.0
31,49,114.0
31,50,112.0
31,51,110.0
31,52,109.0
31,53,112.0
31,54,112.0
31,55,115.0
31,56,118.0
31,57,115.0
31,58,121.0
31,59,122.0
31,60,124.0
31,61,121.0
31,62,122.0
31,63,121.0
31,64,123.0
31,65,122.0
31,66,120.0
31,67,124.0
31,68,124.0
31,69,125.0
31,70,123.0
31,71,121.0
31,72,124.0
31,73,123.0
31,74,126.0
31,75,123.0
31,76,123.0
31,77,126.0
31,78,123.0
31,79,126.0
31,80,126.0
32,0,98.0
32,1,100.0
32,2,100.0
32,3,101.0
32,4,102.0
32,5,100.0
32,6,100.0
32,7,98.0
32,8,101.0
32,9,100.0
32,10,100.0
32,11,100.0
32,12,101.0
32,13,98.0
32,14,100.0
32,15,99.0
32,16,98.0
32,17,100.0
32,18,97.0
32,19,98.0
32,20,95.0
32,21,96.0
32,22,98.0
32,23,99.0
32,24,97.0
32,25,97.0
32,26,97.0
32,27,98.0
32,28,98.0
32,29,99.0
32,30,99.0
32,31,102.0
32,32,100.0
32,33,100.0
32,34,103.0
32,35,100.0
32,36,100.0
32,37,99.0
32,38,97.0
32,39,98.0
32,40,98.0
32,41,93.0
32,42,91.0
32,43,87.0
32,44,86.0
32,45,86.0
32,46,88.0
32,47,85.0
32,48,90.0
32,49,84.0
32,50,89.0
32,51,86.0
32,52,88.0
32,53,87.0
32,54,88.0
32,55,92.0
32,56,92.0
32,57,97.0
32,58,95.0
32,59,94.0
32,60,94.0
32,61,100.0
32,62,100.0
32,63,97.0
32,64,100.0
32,65,101.0
32,66,99.0
32,67,101.0
32,68,101.0
32,69,100.0
32,70,99.0
32,71,97.0
32,72,96.0
32,73,99.0
32,74,96.0
32,75,97.0
32,76,97.0
32,77,99.0
32,78,98.0
32,79,98.0
32,80,96.0
33,0,134.0
33,1,129.0
33,2,131.0
33,3,131.0
33,4,135.0
33,5,132.0
33,6,131.0
33,7,136.0
33,8,135.0
33,9,129.0
33,10,131.0
33,11,128.0
33,12,125.0
33,13,129.0
33,14,127.0
33,15,125.0
33,16,130.0
33,17,128.0
33,18,128.0
33,19,149.0
33,20,149.0
33,21,152.0
33,22,148.0
33,23,154.0
33,24,149.0
33,25,151.0
33,26,150.0
33,27,152.0
33,28,152.0
33,29,152.0
33,30,150.0
33,31,149.0
33,32,150.0
33,33,152.0
33,34,148.0
33,35,149.0
33,36,152.0
33,37,151.0
33,38,149.0
33,39,149.0
33,40,143.0
33,41,146.0
33,42,134.0
33,43,133.0
33,44,130.0
33,45,131.0
33,46,129.0
33,47,128.0
33,48,132.0
33,49,133.0
33,50,131.0
33,51,133.0
33,52,128.0
33,53,131.0
33,54,128.0
33,55,132.0
33,56,134.0
33,57,139.0
33,58,143.0
33,59,147.0
33,60,149.0
33,61,150.0
33,62,149.0
33,63,147.0
33,64,153.0
33,65,147.0
33,66,149.0
33,67,150.0
33,68,147.0
33,69,155.0
33,70,153.0
33,71,152.0
33,72,149.0
33,73,153.0
33,74,152.0
33,75,149.0
33,76,150.0
33,77,151.0
33,78,150.0
33,79,149.0
33,80,147.0
34,0,146.0
34,1,148.0
34,2,149.0
34,3,149.0
34,4,146.0
34,5,148.0
34,6,148.0
34,7,148.0
34,8,148.0
34,9,147.0
34,10,148.0
34,11,146.0
34,12,151.0
34,13,150.0
34,14,153.0
34,15,150.0
34,16,151.0
34,17,150.0
34,18,151.0
34,19,149.0
34,20,149.0
34,21,152.0
34,22,148.0
34,23,154.0
34,24,149.0
34,25,151.0
34,26,150.0
34,27,152.0
34,28,152.0
34,29,152.0
34,30,150.0
34,31,149.0
34,32,150.0
34,33,152.0
34,34,148.0
34,35,149.0
34,36,152.0
34,37,151.0
34,38,149.0
34,39,149.0
34,40,143.0
34,41,146.0
34,42,134.0
34,43,133.0
34,44,130.0
34,45,131.0
34,46,129.0
34,47,128.0
34,48,132.0
34,49,133.0
34,50,131.0
34,51,133.0
34,52,128.0
34,53,131.0
34,54,128.0
34,55,132.0
34,56,134.0
34,57,139.0
34,58,143.0
34,59,147.0
34,60,149.0
34,61,150.0
34,62,149.0
34,63,147.0
34,64,153.0
34,65,147.0
34,66,149.0
34,67,150.0
34,68,147.0
34,69,155.0
34,70,153.0
34,71,152.0
34,72,149.0
34,73,153.0
34,74,152.0
34,75,149.0
34,76,150.0
34,77,151.0
34,78,150.0
34,79,149.0
34,80,147.0
35,0,83.0
35,1,84.0
35,2,87.0
35,3,84.0
35,4,87.0
35,5,86.0
35,6,82.0
35,7,82.0
35,8,83.0
35,9,83.0
35,10,84.0
35,11,84.0
35,12,87.0
35,13,84.0
35,14,85.0
35,15,88.0
35,16,87.0
35,17,84.0
35,18,85.0
35,19,84.0
35,20,85.0
35,21,81.0
35,22,84.0
35,23,85.0
35,24,84.0
35,25,82.0
35,26,78.0
35,27,83.0
35,28,88.0
35,29,89.0
35,30,90.0
35,31,85.0
35,32,90.0
35,33,85.0
35,34,84.0
35,35,81.0
35,36,81.0
35,37,84.0
35,38,81.0
35,39,81.0
35,40,79.0
35,41,79.0
35,42,80.0
35,43,75.0
35,44,73.0
35,45,71.0
35,46,72.0
35,47,76.0
35,48,73.0
35,49,74.0
35,50,77.0
35,51,76.0
35,52,74.0
35,53,77.0
35,54,78.0
35,55,78.0
35,56,80.0
35,57,76.0
35,58,81.0
35,59,78.0
35,60,79.0
35,61,79.0
35,62,81.0
35,63,82.0
35,64,83.0
35,65,79.0
35,66,82.0
35,67,81.0
35,68,81.0
35,69,83.0
35,70,80.0
35,71,79.0
35,72,81.0
35,73,79.0
35,74,82.0
35,75,80.0
35,76,76.0
35,77,78.0
35,78,80.0
35,79,80.0
35,80,76.0
36,0,103.0
36,1,106.0
36,2,108.0
36,3,108.0
36,4,106.0
36,5,107.0
36,6,108.0
36,7,109.0
36,8,106.0
36,9,109.0
36,10,107.0
36,11,104.0
36,12,107.0
36,13,107.0
36,14,107.0
36,15,106.0
36,16,104.0
36,17,107.0
36,18,107.0
36,19,108.0
36,20,107.0
36,21,108.0
36,22,108.0
36,23,110.0
36,24,109.0
36,25,106.0
36,26,108.0
36,27,106.0
36,28,110.0
36,29,106.0
36,30,105.0
36,31,104.0
36,32,107.0
36,33,106.0
36,34,103.0
36,35,105.0
36,36,108.0
36,37,109.0
36,38,109.0
36,39,110.0
36,40,107.0
36,41,102.0
36,42,100.0
36,43,97.0
36,44,97.0
36,45,98.0
36,46,98.0
36,47,99.0
36,48,97.0
36,49,99.0
36,50,100.0
36,51,97.0
36,52,97.0
36,53,99.0
36,54,94.0
36,55,96.0
36,56,99.0
36,57,100.0
36,58,104.0
36,59,104.0
36,60,104.0
36,61,103.0
36,62,104.0
36,63,105.0
36,64,103.0
36,65,103.0
36,66,104.0
36,67,104.0
36,68,105.0
36,69,102.0
36,70,104.0
36,71,106.0
36,72,107.0
36,73,104.0
36,74,106.0
36,75,105.0
36,76,105.0
36,77,104.0
36,78,105.0
36,79,105.0
36,80,106.0
37,0,98.0
37,1,98.0
37,2,100.0
37,3,98.0
37,4,99.0
37,5,98.0
37,6,98.0
37,7,99.0
37,8,97.0
37,9,98.0
37,10,95.0
37,11,97.0
37,12,94.0
37,13,95.0
37,14,92.0
37,15,96.0
37,16,97.0
37,17,94.0
37,18,93.0
37,19,96.0
37,20,93.0
37,21,93.0
37,22,94.0
37,23,97.0
37,24,93.0
37,25,93.0
37,26,94.0
37,27,94.0
37,28,95.0
37,29,96.0
37,30,100.0
37,31,98.0
37,32,97.0
37,33,99.0
37,34,93.0
37,35,99.0
37,36,99.0
37,37,99.0
37,38,99.0
37,39,97.0
37,40,96.0
37,41,95.0
37,42,89.0
37,43,91.0
37,44,91.0
37,45,90.0
37,46,87.0
37,47,89.0
37,48,90.0
37,49,88.0
37,50,87.0
37,51,88.0
37,52,86.0
37,53,89.0
37,54,92.0
37,55,89.0
37,56,88.0
37,57,88.0
37,58,93.0
37,59,92.0
37,60,94.0
37,61,97.0
37,62,94.0
37,63,92.0
37,64,94.0
37,65,94.0
37,66,94.0
37,67,96.0
37,68,95.0
37,69,90.0
37,70,88.0
37,71,96.0
37,72,94.0
37,73,96.0
37,74,91.0
37,75,94.0
37,76,93.0
37,77,92.0
37,78,95.0
37,79,94.0
37,80,97.0
38,0,90.0
38,1,88.0
38,2,89.0
38,3,88.0
38,4,89.0
38,5,89.0
38,6,90.0
38,7,90.0
38,8,88.0
38,9,88.0
38,10,90.0
38,11,91.0
38,12,90.0
38,13,90.0
38,14,92.0
38,15,93.0
38,16,88.0
38,17,88.0
38,18,89.0
38,19,89.0
38,20,89.0
38,21,89.0
38,22,88.0
38,23,89.0
38,24,91.0
38,25,90.0
38,26,90.0
38,27,91.0
38,28,89.0
38,29,89.0
38,30,91.0
38,31,87.0
38,32,88.0
38,33,87.0
38,34,88.0
38,35,89.0
38,36,89.0
38,37,87.0
38,38,88.0
38,39,90.0
38,40,89.0
38,41,85.0
38,42,84.0
38,43,84.0
38,44,80.0
38,45,82.0
38,46,82.0
38,47,80.0
38,48,85.0
38,49,82.0
38,50,83.0
38,51,84.0
38,52,84.0
38,53,83.0
38,54,84.0
38,55,80.0
38,56,82.0
38,57,82.0
38,58,81.0
38,59,82.0
38,60,81.0
38,61,83.0
38,62,84.0
38,63,85.0
38,64,87.0
38,65,88.0
38,66,87.0
38,67,86.0
38,68,86.0
38,69,86.0
38,70,86.0
38,71,87.0
38,72,85.0
38,73,86.0
38,74,84.0
38,75,84.0
38,76,89.0
38,77,86.0
38,78,85.0
38,79,88.0
38,80,86.0
39,0,98.0
39,1,100.0
39,2,100.0
39,3,100.0
39,4,100.0
39,5,99.0
39,6,100.0
39,7,98.0
39,8,98.0
39,9,100.0
39,10,100.0
39,11,100.0
39,12,100.0
39,13,98.0
39,14,97.0
39,15,100.0
39,16,98.0
39,17,100.0
39,18,96.0
39,19,98.0
39,20,94.0
39,21,96.0
39,22,96.0
39,23,99.0
39,24,97.0
39,25,96.0
39,26,97.0
39,27,98.0
39,28,98.0
39,29,99.0
39,30,99.0
39,31,99.0
39,32,100.0
39,33,100.0
39,34,103.0
39,35,100.0
39,36,100.0
39,37,99.0
39,38,97.0
39,39,98.0
39,40,97.0
39,41,93.0
39,42,90.0
39,43,86.0
39,44,84.0
39,45,86.0
39,46,86.0
39,47,85.0
39,48,87.0
39,49,83.0
39,50,88.0
39,51,86.0
39,52,87.0
39,53,87.0
39,54,88.0
39,55,92.0
39,56,92.0
39,57,91.0
39,58,95.0
39,59,94.0
39,60,92.0
39,61,100.0
39,62,100.0
39,63,97.0
39,64,98.0
39,65,101.0
39,66,98.0
39,67,101.0
39,68,100.0
39,69,98.0
39,70,97.0
39,71,96.0
39,72,96.0
39,73,94.0
39,74,94.0
39,75,97.0
39,76,96.0
39,77,98.0
39,78,98.0
39,79,96.0
39,80,96.0
40,0,109.0
40,1,108.0
40,2,104.0
40,3,108.0
40,4,105.0
40,5,105.0
40,6,104.0
40,7,103.0
40,8,107.0
40,9,103.0
40,10,104.0
40,11,104.0
40,12,102.0
40,13,104.0
40,14,103.0
40,15,105.0
40,16,103.0
40,17,104.0
40,18,105.0
40,19,107.0
40,20,105.0
40,21,108.0
40,22,108.0
40,23,106.0
40,24,107.0
40,25,106.0
40,26,106.0
40,27,104.0
40,28,104.0
40,29,104.0
40,30,105.0
40,31,107.0
40,32,107.0
40,33,109.0
40,34,105.0
40,35,105.0
40,36,107.0
40,37,105.0
40,38,105.0
40,39,105.0
40,40,104.0
40,41,99.0
40,42,94.0
40,43,93.0
40,44,91.0
40,45,92.0
40,46,94.0
40,47,95.0
40,48,94.0
40,49,95.0
40,50,91.0
40,51,91.0
40,52,91.0
40,53,89.0
40,54,92.0
40,55,94.0
40,56,97.0
40,57,97.0
40,58,98.0
40,59,99.0
40,60,103.0
40,61,105.0
40,62,102.0
40,63,101.0
40,64,105.0
40,65,102.0
40,66,106.0
40,67,100.0
40,68,105.0
40,69,101.0
40,70,103.0
40,71,101.0
40,72,104.0
40,73,103.0
40,74,104.0
40,75,106.0
40,76,103.0
40,77,103.0
40,78,101.0
40,79,103.0
40,80,103.0
